 13:26:57.,-0.594009,-0.590786,-0.573217,-0.594171,-0.605131,-0.554520,-0.573862,-0.531793,-0.566125,-0.511161,-0.494720,-0.498428,-0.534694,-0.498911,-0.492303,-0.513740,-0.500201,-0.550812,-0.544526,-0.522283,-0.521799,-0.550006,-0.527602,-0.540980,-0.517931,-0.537756,-0.572894,-0.575473,-0.524378,-0.520510,-0.562095,-0.564674,-0.513418,-0.511483,-0.511645,-0.505197,-0.527763,-0.550168,-0.496977,-0.533243,-0.535339,-0.533727,-0.532760,-0.550168,-0.527118,-0.535661,-0.582243,-0.526957,-0.552908,-0.540335,-0.532437,-0.559677,-0.516480,-0.552908,-0.550329,-0.525345,-0.521155,-0.575312,-0.523250,-0.511483,-0.547427,-0.535661,-0.520026,-0.476023,-0.511322,-0.490368,-0.491497,-0.487951,-0.470382,-0.457487,-0.479569,-0.468931,-0.476668,-0.470865,-0.470059,-0.479247,-0.480375,-0.481665,-0.513740,-0.452007,-0.519220,-0.471510,-0.461033,-0.464096,-0.439757,-0.436211,-0.439596,-0.421382,-0.425734,-0.416546,-0.442013,-0.471188,-0.526312,-0.567414,-0.579342,-0.562417,-0.569348,-0.617059,-0.631082,-0.641236,-0.668960,-0.677503,-0.687335,-0.649134,-0.678953,-0.630759,-0.642365,-0.680726,-0.637529,-0.652036,-0.682499,-0.682660,-0.638819,-0.678309,-0.702808,-0.651552,-0.634305,-0.647039,-0.623667,-0.651230,-0.646072,-0.631726,-0.625601,-0.638819,-0.563223,-0.561773,-0.546460,-0.562417,-0.506648,-0.573056,-0.540013,-0.539207,-0.541141,-0.546138,-0.501974,-0.519865,-0.506970,-0.513257,-0.525668,-0.502296,-0.509872,-0.512934,-0.512773,-0.508743,-0.483115,-0.479247,-0.467964,-0.453941,-0.436856,-0.441369,-0.436856,-0.476345,-0.458293,-0.425573,-0.430247,-0.446365,-0.426701,-0.434115,-0.478118,-0.473605,-0.450234,-0.458132,-0.510839,-0.463773,-0.508582,-0.461194,-0.459421,-0.463290,-0.498105,-0.453135,-0.479892,-0.479247,-0.455230,-0.418964,-0.480536,-0.461839,-0.478441,-0.447655,-0.413645,-0.425089,-0.398655,-0.375767,-0.387695,-0.349011,-0.369964,-0.369964,-0.334182,-0.335471,-0.405102,-0.393820,-0.449428,-0.451201,-0.444109,-0.450717,-0.468125,-0.528569,-0.480859,-0.488434,-0.532115,-0.510194,-0.540658,-0.497622,-0.521316,-0.509872,-0.539046,-0.517931,-0.497944,-0.496493,-0.497138,-0.531470,-0.545010,-0.503424,-0.487306,-0.501490,-0.531309,-0.535822,-0.550812,-0.506648,-0.496655,-0.498589,-0.520187,-0.484566,-0.477313,-0.459421,-0.453619,-0.476668,-0.486178,-0.499234,-0.464096,-0.528408,-0.525184,-0.483921,-0.476345,-0.468286,-0.499878,-0.488595,-0.432987,-0.460227,-0.426540,-0.457326,-0.433954,-0.448622,-0.407681,-0.405747,-0.443142,-0.392852,-0.370287,-0.392047,-0.323382,-0.335149,-0.278735,-0.264389,-0.294853,-0.297432,-0.347560,-0.349011,-0.386889,-0.433309,-0.427990,-0.457165,-0.428474,-0.415096,-0.415579,-0.447816,-0.441369,-0.480536,-0.456681,-0.458132,-0.476023,-0.465063,-0.490207,-0.458132,-0.462161,-0.452813,-0.487306,-0.446204,-0.476023,-0.404135,-0.416385,-0.453619,-0.464257,-0.434599,-0.421060,-0.415418,-0.437017,-0.428635,-0.408165,-0.406714,-0.444431,-0.401718,-0.409616,-0.451362,-0.418803,-0.426862,-0.424767,-0.371737,-0.363033,-0.372866,-0.346109,-0.361583,-0.398816,-0.419287,-0.419770,-0.424122,-0.420576,-0.427829,-0.413645,-0.385599,-0.392530,-0.389145,-0.403652,-0.453941,-0.405102,-0.412839,-0.412194,-0.467642,-0.487628,-0.457326,-0.465546,-0.475540,-0.512451,-0.476345,-0.495526,-0.454102,-0.425895,-0.435566,-0.398655,-0.437661,-0.439757,-0.397527,-0.388017,-0.409777,-0.417030,-0.477957,-0.472638,-0.428635,-0.439273,-0.419448,-0.473283,-0.461194,-0.409938,-0.450878,-0.408810,-0.474895,-0.430892,-0.457971,-0.449105,-0.505197,-0.519381,-0.525506,-0.509227,-0.523411,-0.513418,-0.534533,-0.522444,-0.517286,-0.533243,-0.570477,-0.578697,-0.571121,-0.603197,-0.572733,-0.577569,-0.533404,-0.542753,-0.540980,-0.541786,-0.516319,-0.545816,-0.544043,-0.517608,-0.548717,-0.540497,-0.545654,-0.551941,-0.512773,-0.541302,-0.512128,-0.572894,-0.525668,-0.550329,-0.553230,-0.556293,-0.550651,-0.594977,-0.583694,-0.572894,-0.544043,-0.542108,-0.580631,-0.539046,-0.542270,-0.527118,-0.583533,-0.536628,-0.580792,-0.555164,-0.574023,-0.542270,-0.542592,-0.566931,-0.591269,-0.557904,-0.590625,-0.565319,-0.563546,-0.583049,-0.563385,-0.579503,-0.564835,-0.581115,-0.572572,-0.541302,-0.541141,-0.511161,-0.521316,-0.532921,-0.559516,-0.532760,-0.561773,-0.514224,-0.506164,-0.502296,-0.502780,-0.520187,-0.487145,-0.500201,-0.477957,-0.513095,-0.491658,-0.486500,-0.485855,-0.493592,-0.530181,-0.538885,-0.484243,-0.478280,-0.484727,-0.515352,-0.488434,-0.502941,-0.494237,-0.536789,-0.494720,-0.556131,-0.510678,-0.564996,-0.504069,-0.571927,-0.542914,-0.518898,-0.507132,-0.504391,-0.507293,-0.547266,-0.537434,-0.503424,-0.538079,-0.539046,-0.533888,-0.542753,-0.508421,-0.506487,-0.507293,-0.552908,-0.507937,-0.509066,-0.510516,-0.508260,-0.501651,-0.512773,-0.497299,-0.505036,-0.526312,-0.517125,-0.485533,-0.472799,-0.494720,-0.529052,-0.519865,-0.493914,-0.501812,-0.509710,-0.500684,-0.503747,-0.561128,-0.527441,-0.577408,-0.529858,-0.565158,-0.572250,-0.543075,-0.517931,-0.520026,-0.528247,-0.498589,-0.522444,-0.534049,-0.518253,-0.506326,-0.492947,-0.465707,-0.482632,-0.475701,-0.492303,-0.459260,-0.462323,-0.475378,-0.474895,-0.472477,-0.514224,-0.474411,-0.466997,-0.477474,-0.535661,-0.516480,-0.532276,-0.480053,-0.498428,-0.521638,-0.487306,-0.471026,-0.485049,-0.469253,-0.497622,-0.501168,-0.513740,-0.481181,-0.509066,-0.475862,-0.529375,-0.523250,-0.511806,-0.533888,-0.487306,-0.476345,-0.517125,-0.473928,-0.514062,-0.458615,-0.466836,-0.457648,-0.492625,-0.467480,-0.465063,-0.465869,-0.511967,-0.513579,-0.502296,-0.476668,-0.494398,-0.494882,-0.506809,-0.471188,-0.494398,-0.452652,-0.478924,-0.489240,-0.474411,-0.496171,-0.441691,-0.459905,-0.462000,-0.512451,-0.470221,-0.459744,-0.507937,-0.492947,-0.493431,-0.461033,-0.493914,-0.491658,-0.495365,-0.483760,-0.448783,-0.504553,-0.467642,-0.455069,-0.459582,-0.488918,-0.454425,-0.495849,-0.465707,-0.484566,-0.449589,-0.462484,-0.462484,-0.517447,-0.460711,-0.467642,-0.504230,-0.469253,-0.509549,-0.478924,-0.461033,-0.532921,-0.510033,-0.489240,-0.487951,-0.504875,-0.540497,-0.523733,-0.493592,-0.503102,-0.537918,-0.491658,-0.510839,-0.508421,-0.500845,-0.505197,-0.497622,-0.511000,-0.522605,-0.503908,-0.509872,-0.554358,-0.514707,-0.559677,-0.506164,-0.516641,-0.555970,-0.578213,-0.575312,-0.573378,-0.540658,-0.521638,-0.574667,-0.527602,-0.509549,-0.561934,-0.502618,-0.525990,-0.501168,-0.502457,-0.508905,-0.504714,-0.510839,-0.517125,-0.520993,-0.560644,-0.560806,-0.552746,-0.519865,-0.504069,-0.551618,-0.537112,-0.507776,-0.509227,-0.492303,-0.499717,-0.540013,-0.492464,-0.531470,-0.499717,-0.497783,-0.504553,-0.532921,-0.511000,-0.536145,-0.499072,-0.554197,-0.491336,-0.520187,-0.547589,-0.524862,-0.553230,-0.549684,-0.526796,-0.510033,-0.530664,-0.487306,-0.470704,-0.478602,-0.497622,-0.509872,-0.468447,-0.465869,-0.502941,-0.477313,-0.465224,-0.486339,-0.472638,-0.481342,-0.469737,-0.485049,-0.466513,-0.509872,-0.446204,-0.452168,-0.431536,-0.423961,-0.432826,-0.462161,-0.417675,-0.468125,-0.453135,-0.462645,-0.474089,-0.501651,-0.469253,-0.484082,-0.554358,-0.562579,-0.595299,-0.564352,-0.587401,-0.634628,-0.639624,-0.657999,-0.658644,-0.622861,-0.638496,-0.675407,-0.654776,-0.689914,-0.648490,-0.671861,-0.653325,-0.653970,-0.653003,-0.702486,-0.691364,-0.660417,-0.693460,-0.631888,-0.647361,-0.606743,-0.652197,-0.606743,-0.600940,-0.585950,-0.613835,-0.561934,-0.581437,-0.578536,-0.538724,-0.531793,-0.539046,-0.492786,-0.493431,-0.513579,-0.504391,-0.488434,-0.497783,-0.494237,-0.485533,-0.476668,-0.494559,-0.514062,-0.494076,-0.461033,-0.454102,-0.469092,-0.489240,-0.446849,-0.445076,-0.457326,-0.489885,-0.450878,-0.445721,-0.452974,-0.454908,-0.488434,-0.478441,-0.482632,-0.484082,-0.453135,-0.449428,-0.472316,-0.474572,-0.459099,-0.484888,-0.504230,-0.478280,-0.453941,-0.445076,-0.459260,-0.448622,-0.483438,-0.474089,-0.496816,-0.443142,-0.463773,-0.445721,-0.438629,-0.425250,-0.461194,-0.421865,-0.426540,-0.459582,-0.426379,-0.422188,-0.434760,-0.419125,-0.421382,-0.460872,-0.423638,-0.470221,-0.426862,-0.466030,-0.427023,-0.454747,-0.413645,-0.425250,-0.422833,-0.457165,-0.422833,-0.433309,-0.467158,-0.480375,-0.473605,-0.455069,-0.472155,-0.495204,-0.461194,-0.456036,-0.454908,-0.447332,-0.489079,-0.478118,-0.459744,-0.467803,-0.421382,-0.420415,-0.410583,-0.404296,-0.390435,-0.384149,-0.418803,-0.391724,-0.399783,-0.378024,-0.394142,-0.380925,-0.383020,-0.435566,-0.382053,-0.401879,-0.379313,-0.433632,-0.410905,-0.400428,-0.395109,-0.391724,-0.418158,-0.413323,-0.377218,-0.417191,-0.422833,-0.403974,-0.393981,-0.387856,-0.411550,-0.423316,-0.435888,-0.379152,-0.415579,-0.435727,-0.418642,-0.388500,-0.388823,-0.387211,-0.384954,-0.378829,-0.388017,-0.387533,-0.398010,-0.437339,-0.423961,-0.397688,-0.381086,-0.399461,-0.419125,-0.437823,-0.426379,-0.435082,-0.443464,-0.406069,-0.397688,-0.438790,-0.437661,-0.403652,-0.437661,-0.442980,-0.400267,-0.418481,-0.364162,-0.356425,-0.345948,-0.386566,-0.342563,-0.351267,-0.345142,-0.356425,-0.405264,-0.378668,-0.383987,-0.391402,-0.393658,-0.378185,-0.368514,-0.348527,-0.343369,-0.354652,-0.357714,-0.372382,-0.327251,-0.318224,-0.320803,-0.370609,-0.337728,-0.373994,-0.360938,-0.345948,-0.372866,-0.373188,-0.367224,-0.365935,-0.362872,-0.363839,-0.395109,-0.404619,-0.354652,-0.356747,-0.363033,-0.399783,-0.414290,-0.406875,-0.372704,-0.396560,-0.379152,-0.382537,-0.381731,-0.413323,-0.422994,-0.426701,-0.402362,-0.432826,-0.393658,-0.428958,-0.407198,-0.415257,-0.410099,-0.398010,-0.453296,-0.405747,-0.457326,-0.410905,-0.452813,-0.421704,-0.424928,-0.427185,-0.482148,-0.428635,-0.452168,-0.483599,-0.457003,-0.457809,-0.460388,-0.489240,-0.464901,-0.475056,-0.524217,-0.478118,-0.476345,-0.489563,-0.471349,-0.478602,-0.502618,-0.465546,-0.470382,-0.497299,-0.468770,-0.496171,-0.472155,-0.464740,-0.469415,-0.519220,-0.535016,-0.514868,-0.500201,-0.504875,-0.547911,-0.570477,-0.538401,-0.528730,-0.537273,-0.578052,-0.579181,-0.531793,-0.564352,-0.504875,-0.510355,-0.537595,-0.523250,-0.492786,-0.507776,-0.556454,-0.532437,-0.546460
 13:26:58.,-0.563546,-0.554681,-0.549362,-0.560806,-0.545010,-0.543559,-0.575796,-0.568220,-0.568704,-0.576118,-0.533566,-0.543237,-0.533243,-0.543237,-0.561773,-0.545654,-0.543075,-0.558710,-0.523733,-0.512451,-0.505842,-0.513257,-0.493431,-0.501651,-0.510194,-0.504230,-0.532921,-0.516964,-0.554358,-0.535661,-0.533243,-0.546622,-0.545977,-0.543559,-0.571927,-0.529214,-0.554842,-0.539368,-0.535500,-0.508743,-0.502941,-0.507776,-0.536467,-0.508260,-0.551296,-0.514062,-0.513257,-0.540335,-0.503263,-0.558227,-0.529214,-0.498589,-0.497783,-0.498750,-0.539691,-0.527763,-0.496977,-0.498911,-0.500039,-0.522444,-0.564996,-0.542431,-0.576440,-0.547427,-0.597072,-0.542431,-0.586273,-0.532921,-0.542431,-0.517931,-0.559033,-0.546299,-0.501490,-0.549684,-0.513579,-0.505681,-0.515674,-0.509227,-0.568704,-0.517447,-0.558549,-0.557582,-0.531148,-0.527279,-0.521638,-0.535500,-0.524539,-0.534372,-0.552102,-0.502457,-0.509710,-0.487467,-0.506164,-0.528569,-0.532437,-0.538724,-0.518737,-0.498911,-0.542592,-0.484888,-0.486339,-0.497299,-0.481342,-0.498911,-0.536467,-0.503747,-0.520026,-0.554520,-0.526635,-0.558871,-0.564352,-0.552585,-0.539368,-0.543398,-0.584500,-0.544204,-0.563546,-0.527763,-0.567092,-0.534855,-0.556937,-0.545332,-0.521799,-0.545977,-0.492141,-0.495043,-0.532760,-0.509066,-0.494237,-0.495688,-0.536789,-0.498266,-0.519543,-0.478118,-0.493753,-0.472155,-0.440240,-0.441369,-0.456520,-0.430892,-0.462161,-0.474895,-0.472961,-0.480375,-0.495043,-0.520349,-0.463451,-0.522122,-0.478441,-0.540497,-0.494882,-0.494398,-0.504069,-0.533727,-0.497783,-0.490530,-0.476184,-0.479086,-0.469415,-0.496493,-0.470543,-0.481020,-0.524378,-0.493592,-0.530664,-0.500039,-0.504069,-0.495526,-0.488757,-0.506970,-0.493753,-0.545654,-0.491658,-0.522928,-0.491174,-0.508421,-0.491819,-0.494237,-0.500523,-0.474734,-0.477151,-0.474250,-0.516964,-0.480375,-0.525023,-0.470382,-0.492464,-0.507293,-0.482148,-0.483115,-0.529536,-0.483276,-0.526796,-0.533888,-0.496332,-0.498750,-0.517608,-0.539368,-0.562417,-0.528408,-0.576763,-0.578536,-0.597556,-0.596427,-0.557582,-0.543075,-0.535822,-0.539529,-0.535500,-0.516480,-0.522928,-0.551779,-0.548878,-0.504714,-0.525506,-0.534372,-0.543237,-0.561934,-0.619960,-0.612546,-0.587240,-0.579825,-0.605454,-0.601907,-0.581115,-0.568865,-0.553230,-0.535177,-0.530020,-0.520671,-0.514707,-0.496655,-0.478602,-0.491013,-0.535339,-0.538724,-0.546460,-0.516641,-0.560000,-0.530826,-0.567737,-0.534694,-0.519059,-0.512128,-0.495526,-0.558710,-0.536628,-0.497138,-0.504069,-0.502780,-0.540174,-0.515997,-0.516964,-0.523250,-0.527763,-0.572894,-0.566125,-0.555809,-0.544365,-0.551296,-0.567253,-0.619476,-0.572572,-0.572089,-0.567898,-0.574506,-0.551135,-0.600134,-0.566769,-0.554036,-0.613996,-0.577085,-0.573378,-0.590141,-0.546299,-0.549362,-0.550651,-0.508905,-0.518092,-0.455875,-0.512451,-0.460711,-0.469898,-0.466513,-0.441369,-0.436533,-0.437339,-0.480214,-0.472638,-0.417997,-0.461839,-0.440240,-0.446527,-0.395270,-0.405264,-0.405264,-0.456842,-0.394948,-0.422349,-0.422027,-0.467319,-0.427990,-0.447816,-0.484243,-0.527441,-0.545171,-0.569026,-0.543398,-0.621733,-0.624634,-0.617865,-0.616898,-0.628180,-0.651874,-0.681855,-0.710868,-0.680243,-0.682338,-0.732466,-0.739719,-0.723440,-0.727147,-0.736657,-0.696683,-0.751002,-0.720055,-0.738430,-0.712963,-0.714897,-0.750519,-0.703937,-0.719572,-0.688141,-0.661545,-0.687012,-0.622861,-0.634144,-0.603680,-0.584983,-0.561289,-0.547105,-0.524701,-0.517931,-0.492947,-0.491497,-0.506809,-0.473283,-0.499878,-0.517931,-0.482793,-0.498750,-0.505036,-0.502618,-0.546622,-0.540497,-0.513257,-0.524378,-0.511000,-0.571444,-0.521638,-0.530181,-0.511161,-0.523089,-0.506003,-0.521638,-0.491819,-0.480859,-0.462323,-0.471994,-0.461194,-0.458132,-0.432665,-0.484727,-0.428958,-0.428313,-0.440240,-0.468609,-0.439434,-0.496332,-0.447171,-0.468770,-0.501812,-0.483599,-0.495204,-0.471510,-0.494076,-0.480859,-0.490046,-0.493270,-0.495526,-0.521638,-0.475862,-0.499395,-0.481826,-0.526151,-0.487951,-0.480536,-0.481342,-0.518092,-0.508099,-0.502618,-0.510678,-0.508421,-0.467964,-0.467319,-0.469415,-0.469898,-0.500684,-0.469253,-0.449105,-0.460388,-0.466191,-0.495043,-0.453296,-0.471671,-0.472799,-0.466674,-0.465224,-0.440402,-0.435082,-0.412033,-0.442013,-0.410099,-0.430569,-0.397527,-0.413323,-0.452974,-0.409777,-0.403813,-0.434760,-0.417352,-0.418642,-0.478602,-0.443464,-0.453296,-0.485372,-0.461839,-0.490046,-0.512128,-0.499556,-0.492947,-0.476023,-0.507132,-0.531470,-0.484727,-0.476990,-0.472638,-0.515352,-0.481503,-0.455069,-0.451523,-0.454263,-0.482954,-0.434115,-0.477474,-0.446365,-0.445559,-0.431536,-0.435082,-0.451362,-0.482309,-0.448783,-0.467964,-0.466513,-0.441852,-0.455230,-0.485211,-0.439273,-0.494882,-0.453619,-0.451684,-0.465063,-0.460066,-0.448461,-0.435566,-0.390596,-0.395754,-0.382053,-0.408165,-0.390757,-0.385760,-0.380602,-0.434115,-0.382698,-0.388178,-0.403813,-0.428474,-0.383504,-0.387050,-0.388662,-0.371415,-0.408326,-0.375928,-0.355297,-0.416708,-0.366902,-0.417836,-0.374155,-0.431214,-0.389951,-0.390112,-0.395915,-0.418319,-0.409777,-0.417997,-0.462967,-0.470543,-0.442175,-0.435888,-0.451362,-0.432504,-0.440079,-0.432181,-0.417997,-0.427829,-0.371415,-0.378185,-0.415096,-0.410099,-0.386727,-0.375445,-0.378668,-0.392369,-0.423961,-0.421060,-0.427829,-0.440079,-0.424928,-0.465546,-0.422510,-0.437500,-0.467319,-0.435405,-0.455875,-0.455069,-0.413000,-0.429441,-0.412839,-0.437339,-0.447655,-0.419931,-0.457326,-0.471510,-0.472477,-0.491174,-0.441530,-0.485855,-0.447816,-0.466836,-0.490852,-0.499556,-0.485533,-0.473122,-0.465869,-0.526312,-0.509227,-0.485372,-0.474089,-0.511967,-0.507293,-0.465707,-0.516158,-0.498589,-0.478118,-0.498428,-0.485049,-0.498589,-0.518576,-0.511000,-0.499556,-0.507937,-0.510033,-0.518414,-0.542270,-0.504714,-0.535177,-0.504553,-0.521155,-0.535339,-0.499072,-0.513257,-0.520510,-0.534855,-0.528569,-0.568381,-0.538240,-0.587401,-0.594493,-0.552102,-0.577085,-0.552585,-0.606582,-0.588368,-0.549362,-0.547750,-0.571121,-0.561128,-0.575957,-0.588368,-0.565641,-0.581598,-0.567253,-0.555164,-0.597072,-0.559677,-0.570154,-0.584983,-0.536306,-0.557743,-0.525668,-0.585628,-0.565641,-0.539207,-0.557260,-0.543075,-0.549200,-0.587240,-0.553230,-0.587723,-0.571766,-0.588690,-0.543881,-0.565802,-0.537756,-0.539529,-0.543720,-0.526796,-0.557421,-0.543237,-0.500684,-0.505681,-0.505036,-0.568381,-0.526635,-0.593687,-0.610934,-0.572894,-0.629631,-0.622700,-0.637368,-0.614641,-0.575635,-0.563385,-0.607549,-0.565964,-0.534210,-0.530503,-0.524862,-0.541302,-0.524056,-0.560483,-0.516641,-0.516158,-0.525668,-0.563868,-0.535339,-0.570960,-0.537756,-0.542914,-0.567898,-0.545493,-0.527441,-0.525829,-0.598200,-0.546944,-0.560483,-0.559839,-0.569832,-0.549684,-0.577408,-0.542914,-0.572250,-0.536789,-0.516319,-0.492786,-0.539368,-0.517125,-0.517770,-0.508905,-0.540335,-0.568542,-0.579342,-0.567898,-0.574829,-0.590141,-0.587562,-0.542592,-0.544365,-0.571283,-0.560967,-0.555648,-0.576763,-0.571766,-0.536467,-0.575473,-0.590463,-0.546622,-0.599329,-0.596105,-0.558066,-0.587885,-0.556937,-0.593687,-0.568220,-0.587562,-0.556937,-0.555648,-0.520187,-0.515513,-0.516964,-0.534049,-0.493431,-0.486822,-0.560161,-0.507454,-0.552585,-0.544526,-0.545332,-0.517447,-0.529052,-0.531793,-0.505197,-0.505036,-0.514546,-0.517447,-0.545977,-0.545171,-0.545493,-0.537273,-0.514224,-0.490207,-0.500039,-0.548072,-0.513257,-0.498589,-0.507132,-0.499717,-0.534210,-0.481503,-0.539852,-0.493431,-0.488918,-0.499717,-0.488273,-0.528730,-0.560322,-0.524862,-0.562417,-0.514868,-0.571605,-0.551618,-0.535983,-0.526635,-0.522605,-0.514224,-0.552746,-0.547911,-0.535983,-0.466836,-0.471994,-0.456198,-0.477474,-0.488273,-0.465546,-0.498589,-0.507132,-0.491013,-0.475862,-0.481987,-0.508582,-0.480053,-0.527279,-0.496010,-0.509710,-0.531309,-0.503424,-0.531309,-0.555164,-0.567253,-0.526151,-0.561450,-0.538562,-0.520349,-0.523250,-0.560000,-0.508743,-0.519704,-0.488757,-0.498105,-0.520993,-0.498266,-0.489240,-0.483760,-0.544848,-0.576924,-0.558871,-0.547589,-0.594654,-0.614641,-0.599812,-0.596911,-0.614802,-0.584822,-0.544365,-0.521799,-0.498911,-0.501329,-0.493109,-0.514707,-0.473928,-0.470382,-0.499234,-0.473767,-0.454908,-0.481665,-0.461678,-0.482470,-0.464418,-0.515030,-0.503102,-0.496816,-0.484243,-0.490368,-0.522766,-0.503102,-0.480053,-0.513740,-0.508905,-0.539852,-0.535177,-0.490852,-0.530503,-0.539046,-0.544526,-0.509872,-0.497299,-0.502135,-0.493914,-0.508582,-0.525345,-0.528891,-0.494720,-0.542270,-0.564352,-0.538240,-0.528569,-0.567414,-0.605131,-0.652841,-0.606421,-0.632371,-0.638174,-0.648651,-0.637368,-0.580309,-0.590463,-0.573700,-0.615930,-0.600457,-0.539691,-0.591431,-0.596911,-0.573539,-0.560644,-0.588046,-0.560967,-0.550490,-0.551618,-0.541464,-0.534049,-0.554197,-0.551618,-0.526312,-0.487790,-0.527118,-0.519865,-0.492786,-0.539852,-0.518092,-0.554358,-0.483115,-0.475378,-0.463612,-0.480053,-0.438951,-0.458293,-0.403168,-0.422349,-0.437984,-0.446527,-0.442658,-0.420898,-0.399783,-0.444915,-0.404941,-0.395431,-0.387856,-0.422671,-0.376573,-0.406069,-0.393658,-0.439596,-0.388662,-0.442175,-0.437178,-0.455230,-0.475862,-0.530664,-0.541141,-0.561289,-0.585306,-0.621411,-0.660578,-0.649618,-0.689269,-0.714736,-0.709901,-0.733756,-0.688785,-0.696039,-0.682660,-0.721345,-0.689914,-0.681855,-0.681210,-0.685884,-0.676374,-0.682338,-0.687657,-0.674601,-0.689914,-0.704743,-0.675891,-0.661062,-0.654453,-0.635434,-0.665091,-0.637207,-0.624957,-0.579503,-0.583533,-0.534533,-0.510355,-0.509710,-0.525829,-0.502941,-0.523411,-0.490207,-0.500684,-0.472638,-0.500201,-0.517286,-0.503102,-0.548072,-0.548878,-0.498428,-0.540497,-0.479730,-0.504069,-0.476023,-0.462000,-0.502941,-0.457648,-0.497299,-0.524539,-0.486339,-0.501329,-0.496010,-0.448300,-0.436050,-0.459582,-0.435566,-0.400589,-0.386566,-0.438306,-0.425089,-0.419931,-0.430731,-0.469737,-0.454586,-0.488112,-0.514868,-0.525023,-0.527118,-0.527118,-0.470221,-0.464257,-0.464579,-0.443786,-0.424767,-0.454908,-0.433954,-0.455069,-0.438951,-0.424283,-0.410583,-0.421060,-0.471026,-0.439757,-0.447816
 13:26:59.,-0.439273,-0.460711,-0.456198,-0.437339,-0.439757,-0.479892,-0.488918,-0.429119,-0.459099,-0.433148,-0.431698,-0.423316,-0.486016,-0.486339,-0.483760,-0.456359,-0.467158,-0.502457,-0.498911,-0.452329,-0.473283,-0.441530,-0.482309,-0.425734,-0.457003,-0.463773,-0.421060,-0.407198,-0.411711,-0.391241,-0.445721,-0.406714,-0.435566,-0.455875,-0.425250,-0.439434,-0.455714,-0.444270,-0.445076,-0.407037,-0.440079,-0.418964,-0.388339,-0.381086,-0.378185,-0.423155,-0.390112,-0.438306,-0.442175,-0.417513,-0.426862,-0.450556,-0.399783,-0.404619,-0.392208,-0.390112,-0.426056,-0.397849,-0.400267,-0.388823,-0.420576,-0.391724,-0.410905,-0.379313,-0.400428,-0.409938,-0.381731,-0.389306,-0.399139,-0.397204,-0.360132,-0.355458,-0.349494,-0.365290,-0.356425,-0.373833,-0.375445,-0.405908,-0.375283,-0.379313,-0.414773,-0.384471,-0.417352,-0.432504,-0.373994,-0.371254,-0.370126,-0.347882,-0.362550,-0.386244,-0.371899,-0.386889,-0.351106,-0.371737,-0.395754,-0.397043,-0.410421,-0.370609,-0.399783,-0.369642,-0.367869,-0.352073,-0.370931,-0.358520,-0.353040,-0.360616,-0.381247,-0.338372,-0.329830,-0.381086,-0.369158,-0.421704,-0.393658,-0.407198,-0.424283,-0.433471,-0.413000,-0.452813,-0.400589,-0.381086,-0.405264,-0.403168,-0.382698,-0.376895,-0.367385,-0.360777,-0.363195,-0.328540,-0.353040,-0.323221,-0.363517,-0.342402,-0.355941,-0.368353,-0.378346,-0.379958,-0.392530,-0.393336,-0.387695,-0.404941,-0.372704,-0.377218,-0.378185,-0.371093,-0.369320,-0.377862,-0.442497,-0.439273,-0.463773,-0.424606,-0.431859,-0.439596,-0.427346,-0.456681,-0.447332,-0.419448,-0.440563,-0.420092,-0.439918,-0.466836,-0.453135,-0.439918,-0.494398,-0.484566,-0.487951,-0.475701,-0.437339,-0.454102,-0.446688,-0.472638,-0.452652,-0.489563,-0.496171,-0.485372,-0.471026,-0.508099,-0.503102,-0.500201,-0.506003,-0.549200,-0.532115,-0.572894,-0.541947,-0.540980,-0.571605,-0.553552,-0.535500,-0.493592,-0.473444,-0.486016,-0.496816,-0.526312,-0.527441,-0.472155,-0.547750,-0.534855,-0.553069,-0.521316,-0.524217,-0.526635,-0.547427,-0.539368,-0.496493,-0.494076,-0.504875,-0.552908,-0.537595,-0.564996,-0.545171,-0.561289,-0.532921,-0.541625,-0.546622,-0.525184,-0.523733,-0.518092,-0.549200,-0.525345,-0.510194,-0.548556,-0.565158,-0.506326,-0.540497,-0.551618,-0.542431,-0.542431,-0.513579,-0.535016,-0.567092,-0.545171,-0.536145,-0.539529,-0.580954,-0.574184,-0.537595,-0.534049,-0.525506,-0.540335,-0.527279,-0.532921,-0.550973,-0.532921,-0.551135,-0.542108,-0.504391,-0.508421,-0.533082,-0.565158,-0.562256,-0.561612,-0.559194,-0.524539,-0.514707,-0.534210,-0.525668,-0.504553,-0.527279,-0.541947,-0.538562,-0.528730,-0.523089,-0.517286,-0.557743,-0.569993,-0.577085,-0.534855,-0.563868,-0.514546,-0.516480,-0.535661,-0.563707,-0.544043,-0.514546,-0.494398,-0.515997,-0.501974,-0.552424,-0.540980,-0.560161,-0.509549,-0.559839,-0.525829,-0.545171,-0.518414,-0.525668,-0.548072,-0.570477,-0.537756,-0.522283,-0.516319,-0.521316,-0.518576,-0.580954,-0.515191,-0.563546,-0.518898,-0.547427,-0.537434,-0.554358,-0.588852,-0.532115,-0.536950,-0.536789,-0.542431,-0.555809,-0.567414,-0.574990,-0.524862,-0.527279,-0.524862,-0.564029,-0.583533,-0.563707,-0.572411,-0.525668,-0.579664,-0.535016,-0.560644,-0.547266,-0.558710,-0.525184,-0.530826,-0.516480,-0.530181,-0.552102,-0.515191,-0.514868,-0.536950,-0.516964,-0.524056,-0.534049,-0.555325,-0.523089,-0.509872,-0.557098,-0.566769,-0.532599,-0.501168,-0.510033,-0.513901,-0.548233,-0.541141,-0.494237,-0.500523,-0.499072,-0.553875,-0.551457,-0.524056,-0.508099,-0.525829,-0.534694,-0.552102,-0.516803,-0.512289,-0.528569,-0.503424,-0.525506,-0.516480,-0.511322,-0.500201,-0.540980,-0.513579,-0.544204,-0.536467,-0.510516,-0.499556,-0.534210,-0.541141,-0.537595,-0.494882,-0.495526,-0.490046,-0.540819,-0.480375,-0.517286,-0.481665,-0.501651,-0.505359,-0.507776,-0.534372,-0.523411,-0.512451,-0.552424,-0.501007,-0.538562,-0.539368,-0.499072,-0.532115,-0.523411,-0.536145,-0.496977,-0.503747,-0.511967,-0.528730,-0.493592,-0.539207,-0.540658,-0.509710,-0.527924,-0.509388,-0.562256,-0.507615,-0.508905,-0.523895,-0.549523,-0.550812,-0.515191,-0.515513,-0.509872,-0.511483,-0.521155,-0.561450,-0.529536,-0.565964,-0.565802,-0.541786,-0.574829,-0.576602,-0.582888,-0.549362,-0.540174,-0.564513,-0.532276,-0.587401,-0.534049,-0.584016,-0.530826,-0.580792,-0.577730,-0.542270,-0.590141,-0.550329,-0.547105,-0.590947,-0.571444,-0.590625,-0.550812,-0.572250,-0.569671,-0.579825,-0.584661,-0.554036,-0.572733,-0.557421,-0.555648,-0.550812,-0.540497,-0.584177,-0.537273,-0.587079,-0.549039,-0.537918,-0.535177,-0.532437,-0.536789,-0.540658,-0.538562,-0.594977,-0.563707,-0.531954,-0.571444,-0.555970,-0.538562,-0.559033,-0.536789,-0.543720,-0.572572,-0.555487,-0.581276,-0.541302,-0.529214,-0.567253,-0.521316,-0.564029,-0.570638,-0.567737,-0.563385,-0.528569,-0.538724,-0.569832,-0.540497,-0.507776,-0.501329,-0.515835,-0.513579,-0.492947,-0.489079,-0.538240,-0.522283,-0.480536,-0.490691,-0.512773,-0.506809,-0.512289,-0.516964,-0.467158,-0.475701,-0.466997,-0.471832,-0.463612,-0.466191,-0.448622,-0.469415,-0.450556,-0.479892,-0.479892,-0.428152,-0.430569,-0.487467,-0.446849,-0.471510,-0.486339,-0.564513,-0.538240,-0.575635,-0.593526,-0.606098,-0.662513,-0.630921,-0.675730,-0.636240,-0.691203,-0.704098,-0.649457,-0.662835,-0.697489,-0.707966,-0.711835,-0.732950,-0.726502,-0.688463,-0.696039,-0.751164,-0.736012,-0.708611,-0.721183,-0.678792,-0.703292,-0.664930,-0.644138,-0.641397,-0.640914,-0.668799,-0.598684,-0.642365,-0.574184,-0.584822,-0.564996,-0.553069,-0.534694,-0.574990,-0.564029,-0.524862,-0.535339,-0.503263,-0.480697,-0.487306,-0.471026,-0.486661,-0.502618,-0.474734,-0.521316,-0.481665,-0.498750,-0.480053,-0.513418,-0.473283,-0.514224,-0.509549,-0.479569,-0.521960,-0.504230,-0.495204,-0.480375,-0.496171,-0.469737,-0.486661,-0.496816,-0.476507,-0.508582,-0.482954,-0.480375,-0.474411,-0.499878,-0.503424,-0.500684,-0.498589,-0.473605,-0.452813,-0.458938,-0.501651,-0.491980,-0.481020,-0.453619,-0.489240,-0.449428,-0.508260,-0.460227,-0.459582,-0.465869,-0.463128,-0.507615,-0.488757,-0.508260,-0.454747,-0.460066,-0.465063,-0.453780,-0.451201,-0.490046,-0.452007,-0.511483,-0.444754,-0.492786,-0.469576,-0.512451,-0.460227,-0.448622,-0.455392,-0.488434,-0.443948,-0.476668,-0.430408,-0.432020,-0.433632,-0.455553,-0.465707,-0.477151,-0.429119,-0.446365,-0.435888,-0.437823,-0.468125,-0.447010,-0.433954,-0.430731,-0.430731,-0.474572,-0.435244,-0.449267,-0.436856,-0.468770,-0.467480,-0.437984,-0.427346,-0.443625,-0.474734,-0.473928,-0.431859,-0.474411,-0.437823,-0.433793,-0.486500,-0.438790,-0.463290,-0.453780,-0.419125,-0.452652,-0.455714,-0.418642,-0.443142,-0.442336,-0.430569,-0.468125,-0.422510,-0.428958,-0.427185,-0.407359,-0.406875,-0.432181,-0.441046,-0.397527,-0.432504,-0.431375,-0.400428,-0.397204,-0.439918,-0.397043,-0.439434,-0.415740,-0.447171,-0.444915,-0.414612,-0.426217,-0.438629,-0.427829,-0.363839,-0.406875,-0.415257,-0.373027,-0.378991,-0.388662,-0.398171,-0.382053,-0.399139,-0.397043,-0.417675,-0.369158,-0.390596,-0.369803,-0.378024,-0.404941,-0.370448,-0.373672,-0.394625,-0.378185,-0.373510,-0.375122,-0.371576,-0.403168,-0.421382,-0.368997,-0.381086,-0.412839,-0.408487,-0.407037,-0.376089,-0.429925,-0.420415,-0.403813,-0.372543,-0.371415,-0.431053,-0.377218,-0.382053,-0.411066,-0.433632,-0.381086,-0.414935,-0.414290,-0.380925,-0.381408,-0.401234,-0.437823,-0.393175,-0.391885,-0.437823,-0.419931,-0.403329,-0.399783,-0.406069,-0.393820,-0.428958,-0.437178,-0.405425,-0.431536,-0.411872,-0.425089,-0.408810,-0.413000,-0.453296,-0.409454,-0.427829,-0.464579,-0.465385,-0.439112,-0.435888,-0.455875,-0.468286,-0.455069,-0.483760,-0.436211,-0.452490,-0.448944,-0.499395,-0.450073,-0.457326,-0.480536,-0.497138,-0.459582,-0.497944,-0.495204,-0.468609,-0.457487,-0.515997,-0.478280,-0.479892,-0.515835,-0.514868,-0.492303,-0.491013,-0.537595,-0.496010,-0.489885,-0.546138,-0.488434,-0.500684,-0.530664,-0.542108,-0.511967,-0.541464,-0.493914,-0.506970,-0.500523,-0.518737,-0.510355,-0.525668,-0.510033,-0.559839,-0.569348,-0.553391,-0.562256,-0.528247,-0.522605,-0.564513,-0.568381,-0.560967,-0.522283,-0.570960,-0.523411,-0.566608,-0.577408,-0.539529,-0.587562,-0.546138,-0.537434,-0.538562,-0.531793,-0.546460,-0.564029,-0.546783,-0.522766,-0.552263,-0.570960,-0.581760,-0.580470,-0.512128,-0.556131,-0.540980,-0.538401,-0.547427,-0.564835,-0.580309,-0.528891,-0.534855,-0.540497,-0.527118,-0.572733,-0.522122,-0.531470,-0.529697,-0.539207,-0.556293,-0.565802,-0.542270,-0.567575,-0.563223,-0.530181,-0.531954,-0.538885,-0.524701,-0.535500,-0.551618,-0.532115,-0.529697,-0.555003,-0.511483,-0.553069,-0.549523,-0.530020,-0.512934,-0.522928,-0.504230,-0.560322,-0.507776,-0.577085,-0.566286,-0.572250,-0.518092,-0.519704,-0.572894,-0.520671,-0.504553,-0.517286,-0.491497,-0.553230,-0.504714,-0.507776,-0.505197,-0.510355,-0.516641,-0.512773,-0.511483,-0.542753,-0.498911,-0.502296,-0.502296,-0.511000,-0.498911,-0.503585,-0.542753,-0.497622,-0.550812,-0.499072,-0.515191,-0.537756,-0.506970,-0.509549,-0.501974,-0.550006,-0.535983,-0.516319,-0.548233,-0.506648,-0.545654,-0.544526,-0.481665,-0.493914,-0.499878,-0.550973,-0.539529,-0.488273,-0.561128,-0.494559,-0.510839,-0.558710,-0.511967,-0.535661,-0.501168,-0.512128,-0.492786,-0.534049,-0.524701,-0.502135,-0.499717,-0.526635,-0.536628,-0.489724,-0.513418,-0.517770,-0.510678,-0.511161,-0.546783,-0.529375,-0.522605,-0.533888,-0.507132,-0.535339,-0.537918,-0.502296,-0.504230,-0.532599,-0.490691,-0.527279,-0.538079,-0.544687,-0.494398,-0.501168,-0.494882,-0.509710,-0.497299,-0.524539,-0.477313,-0.469415,-0.475540,-0.486661,-0.514546,-0.480536,-0.474895,-0.472477,-0.513740,-0.484888,-0.493270,-0.524217,-0.488918,-0.521960,-0.521155,-0.496977,-0.519865,-0.503424,-0.481020,-0.531954,-0.499395,-0.480053,-0.529697,-0.522605,-0.464740,-0.487951,-0.475378,-0.474250,-0.514707,-0.479086,-0.469253,-0.507937,-0.463128,-0.509388,-0.468609,-0.468609,-0.496493,-0.501974,-0.489885,-0.456681,-0.460549,-0.503585,-0.490691,-0.500523,-0.467480,-0.469737,-0.483276,-0.473444
 13:27:00.,-0.516319,-0.505520,-0.508582,-0.521316,-0.469737,-0.493592,-0.507776,-0.504553,-0.499717,-0.475378,-0.477313,-0.474089,-0.518898,-0.524862,-0.508260,-0.523572,-0.507776,-0.522283,-0.491980,-0.489885,-0.478763,-0.466836,-0.519865,-0.460227,-0.481342,-0.505359,-0.488434,-0.485694,-0.528408,-0.493914,-0.536950,-0.544204,-0.539852,-0.496816,-0.529536,-0.510355,-0.528247,-0.521477,-0.556615,-0.531631,-0.518898,-0.538240,-0.505197,-0.539368,-0.549523,-0.543398,-0.507776,-0.541302,-0.516158,-0.500684,-0.520832,-0.540658,-0.542592,-0.496977,-0.494559,-0.500039,-0.517770,-0.532760,-0.546138,-0.496655,-0.508260,-0.507615,-0.508099,-0.503585,-0.548878,-0.560483,-0.548395,-0.512612,-0.518898,-0.517125,-0.495526,-0.540497,-0.538240,-0.501007,-0.539207,-0.560000,-0.534049,-0.551296,-0.504714,-0.514546,-0.491497,-0.516158,-0.524701,-0.547911,-0.503424,-0.507293,-0.517125,-0.502780,-0.537112,-0.502135,-0.500039,-0.542431,-0.526151,-0.487306,-0.491658,-0.515030,-0.516803,-0.493109,-0.465707,-0.461678,-0.467642,-0.454908,-0.460388,-0.451040,-0.448783,-0.488434,-0.490530,-0.442175,-0.439918,-0.422994,-0.473122,-0.461355,-0.448300,-0.403652,-0.446849,-0.415579,-0.441369,-0.431053,-0.442497,-0.401395,-0.436533,-0.413806,-0.459905,-0.461033,-0.479892,-0.512289,-0.567575,-0.545171,-0.598684,-0.622217,-0.596750,-0.613029,-0.642526,-0.666381,-0.645749,-0.677825,-0.653164,-0.655098,-0.657193,-0.691687,-0.657838,-0.681693,-0.685723,-0.650263,-0.691848,-0.656065,-0.700713,-0.699101,-0.644138,-0.675085,-0.634789,-0.630276,-0.619799,-0.597717,-0.575151,-0.615930,-0.560161,-0.591269,-0.540174,-0.543237,-0.497461,-0.488918,-0.479086,-0.488273,-0.472477,-0.498911,-0.501007,-0.457326,-0.497944,-0.508743,-0.494559,-0.498105,-0.449267,-0.456842,-0.461194,-0.502457,-0.496010,-0.450878,-0.495043,-0.454102,-0.453457,-0.495204,-0.491497,-0.503424,-0.504391,-0.467642,-0.482793,-0.449911,-0.449750,-0.448944,-0.444915,-0.443625,-0.455230,-0.476507,-0.449911,-0.450073,-0.471671,-0.443625,-0.484082,-0.457809,-0.456359,-0.480859,-0.485694,-0.435888,-0.458454,-0.448300,-0.490691,-0.440402,-0.453619,-0.439757,-0.490368,-0.442336,-0.479247,-0.434599,-0.440240,-0.439112,-0.481342,-0.478763,-0.445076,-0.450556,-0.435566,-0.447171,-0.483760,-0.463128,-0.481987,-0.427668,-0.476990,-0.444431,-0.482309,-0.470865,-0.432504,-0.441369,-0.436694,-0.432665,-0.438951,-0.419609,-0.429763,-0.439918,-0.447816,-0.427829,-0.452813,-0.424122,-0.463934,-0.430086,-0.420415,-0.460872,-0.467964,-0.476184,-0.475378,-0.474572,-0.437339,-0.421221,-0.414612,-0.427990,-0.416224,-0.475378,-0.442175,-0.415257,-0.415257,-0.459905,-0.406875,-0.410583,-0.411227,-0.414129,-0.416385,-0.450395,-0.451846,-0.453619,-0.419287,-0.416224,-0.443464,-0.414129,-0.449105,-0.410260,-0.410099,-0.440885,-0.394303,-0.399944,-0.409777,-0.456520,-0.437017,-0.409616,-0.431214,-0.448783,-0.436372,-0.438467,-0.393175,-0.414773,-0.436211,-0.388500,-0.409454,-0.428313,-0.381408,-0.390435,-0.379313,-0.396076,-0.390918,-0.408326,-0.384793,-0.413967,-0.397849,-0.392208,-0.395431,-0.381570,-0.412517,-0.425895,-0.378668,-0.418803,-0.367869,-0.358198,-0.378991,-0.419770,-0.368836,-0.370770,-0.401879,-0.417513,-0.373833,-0.362228,-0.385922,-0.354652,-0.403813,-0.359487,-0.416708,-0.356586,-0.359487,-0.360938,-0.408165,-0.395754,-0.399461,-0.414612,-0.406392,-0.366902,-0.389790,-0.404135,-0.377218,-0.374478,-0.359004,-0.367063,-0.423155,-0.369964,-0.390112,-0.378024,-0.385438,-0.376573,-0.394787,-0.387695,-0.389629,-0.400106,-0.433954,-0.404780,-0.391241,-0.400267,-0.404619,-0.402685,-0.428958,-0.427185,-0.409616,-0.422994,-0.442013,-0.411389,-0.461355,-0.394142,-0.454586,-0.405102,-0.424928,-0.428635,-0.426056,-0.412839,-0.457648,-0.434921,-0.469737,-0.467642,-0.449105,-0.433471,-0.445721,-0.486822,-0.451201,-0.454908,-0.484566,-0.450717,-0.458454,-0.497299,-0.476668,-0.514868,-0.458615,-0.480536,-0.523895,-0.490046,-0.523895,-0.491013,-0.480214,-0.517447,-0.486016,-0.484405,-0.473928,-0.502780,-0.538724,-0.538562,-0.524056,-0.514546,-0.500523,-0.503424,-0.549845,-0.565480,-0.509710,-0.510516,-0.501329,-0.515674,-0.512289,-0.549684,-0.495365,-0.571444,-0.545977,-0.535177,-0.551941,-0.538079,-0.564352,-0.532115,-0.577246,-0.533404,-0.518576,-0.571605,-0.517770,-0.581276,-0.514224,-0.530181,-0.555809,-0.571605,-0.520832,-0.526474,-0.533243,-0.561934,-0.540335,-0.536789,-0.525829,-0.533243,-0.577408,-0.534533,-0.567898,-0.553069,-0.535016,-0.553552,-0.530503,-0.509872,-0.520671,-0.520349,-0.563385,-0.560644,-0.556131,-0.515513,-0.560483,-0.522766,-0.540174,-0.514385,-0.573539,-0.514707,-0.547750,-0.519543,-0.560000,-0.534533,-0.522283,-0.562579,-0.530826,-0.515030,-0.526151,-0.523733,-0.522605,-0.518253,-0.526151,-0.564513,-0.556454,-0.513901,-0.566286,-0.514224,-0.576279,-0.517931,-0.517770,-0.500845,-0.529052,-0.518414,-0.519543,-0.535983,-0.518414,-0.527602,-0.573539,-0.514707,-0.524378,-0.504230,-0.562095,-0.500684,-0.558066,-0.554520,-0.517286,-0.519381,-0.553875,-0.528569,-0.515674,-0.511322,-0.561773,-0.526957,-0.540819,-0.549845,-0.511161,-0.514062,-0.504553,-0.517608,-0.498750,-0.528247,-0.518414,-0.553391,-0.511161,-0.503908,-0.500201,-0.552585,-0.547589,-0.561128,-0.548072,-0.505842,-0.498428,-0.517286,-0.545493,-0.548878,-0.522122,-0.545654,-0.488595,-0.506809,-0.500523,-0.537273,-0.491013,-0.507615,-0.504875,-0.540497,-0.501168,-0.551135,-0.499234,-0.543237,-0.512934,-0.528891,-0.547266,-0.541464,-0.528085,-0.502457,-0.521799,-0.501329,-0.500201,-0.494076,-0.497783,-0.543720,-0.539691,-0.508743,-0.530181,-0.531148,-0.538240,-0.499072,-0.538724,-0.484243,-0.496010,-0.480697,-0.506970,-0.474089,-0.490207,-0.512289,-0.541786,-0.488273,-0.497944,-0.515997,-0.490530,-0.493109,-0.515352,-0.482793,-0.480214,-0.521799,-0.500201,-0.516158,-0.495365,-0.523250,-0.483438,-0.530664,-0.502941,-0.532760,-0.487145,-0.498589,-0.532599,-0.511806,-0.520026,-0.470704,-0.501812,-0.511967,-0.475701,-0.459421,-0.465546,-0.467158,-0.486822,-0.455553,-0.504553,-0.462000,-0.490368,-0.468770,-0.473444,-0.505036,-0.492947,-0.511000,-0.476990,-0.479730,-0.469415,-0.498750,-0.528247,-0.472799,-0.464901,-0.481987,-0.509066,-0.492625,-0.472961,-0.478924,-0.474411,-0.530503,-0.477957,-0.484243,-0.490852,-0.528085,-0.480697,-0.480697,-0.525668,-0.498589,-0.473605,-0.540497,-0.517608,-0.481503,-0.498428,-0.520187,-0.517447,-0.523250,-0.524539,-0.493914,-0.532599,-0.506003,-0.544687,-0.522444,-0.501490,-0.539691,-0.508421,-0.546622,-0.502941,-0.528247,-0.540013,-0.514224,-0.533404,-0.561934,-0.561289,-0.517931,-0.563868,-0.556937,-0.524378,-0.557421,-0.566608,-0.511322,-0.526635,-0.519865,-0.512128,-0.511806,-0.511645,-0.517608,-0.511967,-0.513095,-0.516158,-0.520349,-0.513901,-0.501007,-0.513579,-0.504714,-0.527602,-0.544526,-0.503908,-0.547266,-0.525506,-0.509388,-0.509388,-0.492625,-0.528891,-0.529052,-0.552102,-0.523733,-0.532115,-0.550168,-0.524217,-0.556615,-0.516158,-0.514707,-0.539852,-0.521638,-0.568704,-0.545332,-0.503585,-0.545010,-0.520349,-0.508905,-0.506326,-0.509388,-0.547266,-0.527763,-0.550651,-0.508905,-0.495849,-0.501490,-0.523250,-0.530826,-0.477635,-0.480375,-0.452490,-0.508260,-0.469898,-0.490691,-0.458776,-0.520349,-0.480053,-0.466191,-0.513257,-0.505036,-0.491658,-0.499072,-0.450395,-0.447332,-0.431536,-0.477151,-0.451523,-0.459099,-0.454263,-0.450717,-0.436694,-0.410583,-0.421704,-0.479892,-0.449105,-0.509066,-0.503424,-0.503424,-0.544848,-0.594654,-0.564513,-0.580148,-0.574506,-0.640914,-0.590141,-0.611095,-0.642526,-0.617220,-0.646072,-0.682016,-0.643493,-0.636723,-0.642203,-0.640914,-0.681693,-0.652680,-0.698134,-0.689914,-0.658322,-0.638657,-0.696039,-0.636562,-0.649940,-0.616092,-0.627697,-0.627213,-0.620121,-0.608355,-0.597394,-0.598039,-0.573862,-0.589496,-0.550168,-0.530664,-0.506164,-0.535822,-0.537112,-0.512451,-0.492464,-0.454747,-0.521155,-0.460549,-0.481503,-0.493914,-0.495526,-0.452168,-0.477957,-0.514707,-0.490691,-0.492464,-0.489401,-0.442497,-0.449589,-0.457648,-0.495688,-0.463934,-0.463290,-0.516480,-0.493431,-0.503747,-0.467642,-0.465707,-0.461678,-0.467158,-0.487628,-0.476023,-0.460066,-0.504714,-0.488434,-0.462484,-0.437661,-0.445237,-0.485533,-0.448461,-0.465869,-0.469253,-0.457971,-0.454425,-0.449589,-0.471349,-0.441530,-0.440563,-0.447171,-0.476668,-0.444915,-0.438951,-0.485855,-0.438790,-0.440240,-0.454586,-0.473122,-0.497138,-0.442819,-0.458615,-0.490691,-0.436856,-0.444915,-0.470059,-0.459744,-0.437017,-0.481181,-0.471510,-0.439434,-0.430086,-0.432826,-0.452974,-0.490046,-0.434277,-0.483438,-0.428152,-0.440079,-0.427990,-0.477313,-0.433632,-0.418319,-0.434921,-0.434599,-0.472799,-0.425250,-0.468286,-0.425411,-0.413806,-0.476345,-0.431859,-0.478924,-0.471349,-0.432020,-0.424444,-0.422027,-0.442336,-0.415418,-0.446688,-0.421221,-0.457487,-0.427023,-0.440240,-0.449750,-0.408487,-0.463773,-0.411711,-0.403974,-0.411550,-0.432826,-0.410099,-0.452974,-0.410583,-0.441369,-0.396398,-0.415740,-0.395593,-0.419125,-0.393175,-0.378185,-0.388662,-0.426379,-0.445559,-0.429925,-0.446849,-0.437339,-0.399944,-0.427990,-0.382053,-0.381570,-0.388017,-0.434921,-0.413645,-0.406875,-0.380925,-0.382537,-0.413645,-0.406392,-0.379635,-0.363356,-0.390112,-0.413806,-0.421382,-0.407842,-0.364645,-0.409293,-0.360938,-0.398655,-0.405264,-0.396076,-0.356909,-0.392852,-0.364162,-0.355941,-0.403329,-0.343047,-0.396560,-0.361260,-0.357553,-0.366902,-0.398655,-0.415902,-0.375928,-0.379635,-0.359004,-0.352073,-0.391079,-0.371899,-0.363195,-0.397688,-0.388339,-0.411872,-0.365774,-0.404619,-0.362550,-0.370770,-0.367547,-0.391079,-0.418964,-0.380119,-0.379474,-0.376412,-0.361905,-0.398171,-0.360938,-0.406553,-0.400267,-0.426217,-0.393658,-0.379474,-0.413645,-0.410583,-0.423477,-0.386727,-0.386405,-0.443625,-0.385277,-0.431053,-0.383343,-0.442819,-0.388984,-0.405586,-0.440563,-0.443625,-0.425250,-0.453780,-0.457971,-0.425411,-0.413645,-0.473928,-0.429763,-0.421060,-0.439918,-0.440402,-0.438145,-0.464096,-0.441852,-0.441530,-0.483599,-0.463773,-0.462806,-0.484243,-0.493592,-0.509549,-0.477796,-0.464096,-0.508099,-0.470865,-0.503102
 13:27:01.,-0.489401,-0.470543,-0.493753,-0.487951,-0.524862,-0.476507,-0.522766,-0.489240,-0.525990,-0.496655,-0.492141,-0.540174,-0.492625,-0.497783,-0.499072,-0.535822,-0.538885,-0.505197,-0.530826,-0.545816,-0.543720,-0.521316,-0.520349,-0.507293,-0.514062,-0.507937,-0.562740,-0.531309,-0.551618,-0.561289,-0.531309,-0.528247,-0.535661,-0.524701,-0.565480,-0.544687,-0.555003,-0.564513,-0.550651,-0.571121,-0.575796,-0.518092,-0.546783,-0.512289,-0.542431,-0.565158,-0.578213,-0.527763,-0.572572,-0.572572,-0.575473,-0.529052,-0.554036,-0.522444,-0.535661,-0.553875,-0.566447,-0.516803,-0.578052,-0.556454,-0.563868,-0.529214,-0.564835,-0.503908,-0.570960,-0.530664,-0.541947,-0.567253,-0.543398,-0.524056,-0.515835,-0.554197,-0.515835,-0.509872,-0.523089,-0.503908,-0.512612,-0.554036,-0.562256,-0.532276,-0.515513,-0.523089,-0.548556,-0.516803,-0.522766,-0.518737,-0.543237,-0.513257,-0.519704,-0.545816,-0.503424,-0.546299,-0.496816,-0.566769,-0.492947,-0.525668,-0.496977,-0.509549,-0.508582,-0.548556,-0.552424,-0.552102,-0.549523,-0.550490,-0.559033,-0.556615,-0.483921,-0.516319,-0.544687,-0.521155,-0.543720,-0.503102,-0.489240,-0.530987,-0.517447,-0.547105,-0.541786,-0.527279,-0.492464,-0.530987,-0.515030,-0.541947,-0.532115,-0.489240,-0.487306,-0.529052,-0.489240,-0.486016,-0.529536,-0.496977,-0.527924,-0.529536,-0.543237,-0.497944,-0.506648,-0.543881,-0.519220,-0.506003,-0.501007,-0.482470,-0.535177,-0.541625,-0.499717,-0.482309,-0.531309,-0.493109,-0.509388,-0.496171,-0.524862,-0.543720,-0.542108,-0.498105,-0.529697,-0.537273,-0.498266,-0.496010,-0.514385,-0.532437,-0.545816,-0.519381,-0.496655,-0.494237,-0.539852,-0.550651,-0.551779,-0.525345,-0.543559,-0.512773,-0.504230,-0.538562,-0.531954,-0.487790,-0.558871,-0.527602,-0.492303,-0.533243,-0.494882,-0.518898,-0.491980,-0.503424,-0.516158,-0.506648,-0.525990,-0.546138,-0.527924,-0.521155,-0.526635,-0.501329,-0.480536,-0.538079,-0.527118,-0.525829,-0.479408,-0.487467,-0.530020,-0.499072,-0.539046,-0.505197,-0.533727,-0.514546,-0.544687,-0.539691,-0.491336,-0.487145,-0.492947,-0.537273,-0.529375,-0.532760,-0.522444,-0.512934,-0.529536,-0.503747,-0.497461,-0.500201,-0.501168,-0.528569,-0.488273,-0.502941,-0.481020,-0.524056,-0.495204,-0.533727,-0.482954,-0.477313,-0.460388,-0.490207,-0.460549,-0.477474,-0.507615,-0.467158,-0.507615,-0.480859,-0.487790,-0.466191,-0.466836,-0.468770,-0.505842,-0.474895,-0.510194,-0.465385,-0.482148,-0.447171,-0.476184,-0.456681,-0.464740,-0.474089,-0.516158,-0.518414,-0.490368,-0.490368,-0.483760,-0.511322,-0.497138,-0.471510,-0.475056,-0.510516,-0.484243,-0.518253,-0.501007,-0.530664,-0.519865,-0.467158,-0.511967,-0.483921,-0.539046,-0.533404,-0.523733,-0.486339,-0.496010,-0.503747,-0.521477,-0.495365,-0.494559,-0.545010,-0.506809,-0.511483,-0.552424,-0.508743,-0.506809,-0.520349,-0.530826,-0.515835,-0.565158,-0.543720,-0.550168,-0.571121,-0.555970,-0.569671,-0.552263,-0.517125,-0.501329,-0.535661,-0.504230,-0.553230,-0.557904,-0.557260,-0.508421,-0.514062,-0.515513,-0.510355,-0.556454,-0.568865,-0.519220,-0.537273,-0.555325,-0.555003,-0.507132,-0.528569,-0.543237,-0.562256,-0.513257,-0.545816,-0.520510,-0.533566,-0.567414,-0.524217,-0.542592,-0.534049,-0.529052,-0.552908,-0.534210,-0.553875,-0.517608,-0.505359,-0.517931,-0.516480,-0.521638,-0.500201,-0.565480,-0.520349,-0.528730,-0.557904,-0.550168,-0.543881,-0.513740,-0.533727,-0.482470,-0.465707,-0.479569,-0.472477,-0.487467,-0.504230,-0.513901,-0.472477,-0.516480,-0.468609,-0.496493,-0.497299,-0.463612,-0.466352,-0.495849,-0.439757,-0.479569,-0.441691,-0.458132,-0.454425,-0.413645,-0.409938,-0.435727,-0.442497,-0.441852,-0.396882,-0.431053,-0.423638,-0.466030,-0.473928,-0.516158,-0.557904,-0.567898,-0.611578,-0.618348,-0.643170,-0.652519,-0.610773,-0.674440,-0.642042,-0.653325,-0.687174,-0.707644,-0.668476,-0.694266,-0.680726,-0.665897,-0.714414,-0.701519,-0.677503,-0.702325,-0.718282,-0.673795,-0.666381,-0.641236,-0.701519,-0.609805,-0.626246,-0.608516,-0.596750,-0.587401,-0.599973,-0.586111,-0.590302,-0.550168,-0.552585,-0.507293,-0.509388,-0.534372,-0.544848,-0.476829,-0.520187,-0.485533,-0.468447,-0.515835,-0.465224,-0.475056,-0.491013,-0.468931,-0.503263,-0.476507,-0.466030,-0.447494,-0.496816,-0.500039,-0.454747,-0.500039,-0.475701,-0.466674,-0.503585,-0.449267,-0.527118,-0.498589,-0.504391,-0.513257,-0.501007,-0.457809,-0.491013,-0.470059,-0.445559,-0.494237,-0.457971,-0.480697,-0.481503,-0.482632,-0.478763,-0.493592,-0.441530,-0.480697,-0.447977,-0.506326,-0.487306,-0.442819,-0.446527,-0.495526,-0.488112,-0.461033,-0.481503,-0.453941,-0.479247,-0.450556,-0.485211,-0.494237,-0.489079,-0.454425,-0.440402,-0.504069,-0.454425,-0.486178,-0.459099,-0.443948,-0.478763,-0.498105,-0.474411,-0.435405,-0.433148,-0.473283,-0.482309,-0.451040,-0.455069,-0.447816,-0.437500,-0.479408,-0.460711,-0.457648,-0.441046,-0.445721,-0.441691,-0.450878,-0.457326,-0.475056,-0.431859,-0.460711,-0.474411,-0.438629,-0.472316,-0.468447,-0.437500,-0.408487,-0.436211,-0.443625,-0.426862,-0.430247,-0.441691,-0.471994,-0.429280,-0.426056,-0.425573,-0.424767,-0.418803,-0.457809,-0.413000,-0.406231,-0.467319,-0.411550,-0.418319,-0.410260,-0.427990,-0.440402,-0.461355,-0.441046,-0.452329,-0.456842,-0.434921,-0.412678,-0.450073,-0.413484,-0.418642,-0.389306,-0.435888,-0.385116,-0.402846,-0.451684,-0.395431,-0.396398,-0.444431,-0.397527,-0.404941,-0.428474,-0.403652,-0.390273,-0.405425,-0.410421,-0.404135,-0.392047,-0.380925,-0.383665,-0.390918,-0.394787,-0.419125,-0.429925,-0.386727,-0.401718,-0.397849,-0.374961,-0.413162,-0.374800,-0.365290,-0.404458,-0.375283,-0.407842,-0.382698,-0.371576,-0.373349,-0.375928,-0.421060,-0.382537,-0.417030,-0.420254,-0.369803,-0.405102,-0.370931,-0.404458,-0.366741,-0.390596,-0.369964,-0.395593,-0.370770,-0.388178,-0.375445,-0.363678,-0.373510,-0.383181,-0.389145,-0.406069,-0.399622,-0.384793,-0.412194,-0.415257,-0.386566,-0.403652,-0.390757,-0.400428,-0.401395,-0.408165,-0.385760,-0.391885,-0.381247,-0.364001,-0.432181,-0.435566,-0.442980,-0.403168,-0.434115,-0.415418,-0.406714,-0.402201,-0.408648,-0.414451,-0.422510,-0.403007,-0.450234,-0.452490,-0.443786,-0.421865,-0.445076,-0.447171,-0.460872,-0.478763,-0.439918,-0.472638,-0.449428,-0.457648,-0.453619,-0.469576,-0.502457,-0.493431,-0.462645,-0.480375,-0.477151,-0.496332,-0.534533,-0.475217,-0.511806,-0.525506,-0.489401,-0.526151,-0.549523,-0.502457,-0.543720,-0.487306,-0.501329,-0.540174,-0.521316,-0.511322,-0.511483,-0.501974,-0.549200,-0.519865,-0.573539,-0.565158,-0.570960,-0.522122,-0.529697,-0.550490,-0.529858,-0.533404,-0.531148,-0.538562,-0.568220,-0.538724,-0.531470,-0.539529,-0.524539,-0.552746,-0.547911,-0.549523,-0.531309,-0.567414,-0.592236,-0.603842,-0.596911,-0.548878,-0.542592,-0.573217,-0.580309,-0.551618,-0.582404,-0.599651,-0.532921,-0.543881,-0.545332,-0.545977,-0.553714,-0.537434,-0.548233,-0.590302,-0.566447,-0.583210,-0.595782,-0.537756,-0.596750,-0.591753,-0.598845,-0.532921,-0.566286,-0.564513,-0.602713,-0.585144,-0.556615,-0.547105,-0.544365,-0.567575,-0.554842,-0.539691,-0.583855,-0.548395,-0.589658,-0.586111,-0.551296,-0.525345,-0.548556,-0.578536,-0.576279,-0.557582,-0.554197,-0.573539,-0.547589,-0.545493,-0.540013,-0.537112,-0.542592,-0.530020,-0.588368,-0.548233,-0.532276,-0.546460,-0.518092,-0.567092,-0.562417,-0.524217,-0.517125,-0.515352,-0.548878,-0.531148,-0.542431,-0.536306,-0.557421,-0.546783,-0.559355,-0.531631,-0.526957,-0.528408,-0.564674,-0.568059,-0.520671,-0.527924,-0.501651,-0.523089,-0.513095,-0.588690,-0.519381,-0.540819,-0.522283,-0.549684,-0.534210,-0.531309,-0.567737,-0.537434,-0.515030,-0.537434,-0.565641,-0.587079,-0.517125,-0.562256,-0.530503,-0.533082,-0.568704,-0.520026,-0.563546,-0.544043,-0.552746,-0.514868,-0.532921,-0.518253,-0.563707,-0.559516,-0.519865,-0.548072,-0.533243,-0.497783,-0.559194,-0.507937,-0.556937,-0.557260,-0.539207,-0.520993,-0.522928,-0.544365,-0.552746,-0.552424,-0.523733,-0.504714,-0.548878,-0.551135,-0.526312,-0.548878,-0.504714,-0.511967,-0.525345,-0.561612,-0.524539,-0.509872,-0.520349,-0.560322,-0.525668,-0.545654,-0.519543,-0.516964,-0.514707,-0.504230,-0.552746,-0.547911,-0.508421,-0.511483,-0.543075,-0.502135,-0.515835,-0.509872,-0.560000,-0.549362,-0.548233,-0.534049,-0.491658,-0.501974,-0.544687,-0.490046,-0.505359,-0.491013,-0.497944,-0.530181,-0.544204,-0.499556,-0.489885,-0.539852,-0.489240,-0.501812,-0.539852,-0.501490,-0.510355,-0.506487,-0.513740,-0.512612,-0.502941,-0.509710,-0.477635,-0.563868,-0.538562,-0.526151,-0.523089,-0.548556,-0.545010,-0.552424,-0.536467,-0.509872,-0.532760,-0.508905,-0.492786,-0.495204,-0.483921,-0.503908,-0.527763,-0.501490,-0.520993,-0.518092,-0.484888,-0.528891,-0.515352,-0.497944,-0.491819,-0.479086,-0.475056,-0.526474,-0.477151,-0.524056,-0.473928,-0.511161,-0.486822,-0.486178,-0.466352,-0.515835,-0.511645,-0.490691,-0.489724,-0.493592,-0.484727,-0.479408,-0.497783,-0.484082,-0.489885,-0.469253,-0.484405,-0.477474,-0.478280,-0.492786,-0.507615,-0.495204,-0.544526,-0.506164,-0.496493,-0.537273,-0.503585,-0.494076,-0.543559,-0.506003,-0.535822,-0.510839,-0.513257,-0.489885,-0.528569,-0.535016,-0.520349,-0.494720,-0.515674,-0.526151,-0.579825,-0.535822,-0.567898,-0.571444,-0.534049,-0.559355,-0.572894,-0.556131,-0.534533,-0.545977,-0.532437,-0.512289,-0.516964,-0.511161,-0.535661,-0.525023,-0.513740,-0.554358,-0.551135,-0.571283,-0.563385,-0.540980,-0.565964,-0.532437,-0.526312,-0.534372,-0.565641,-0.523089,-0.517770,-0.557743,-0.555487,-0.571444,-0.519865,-0.568704,-0.521477,-0.573056,-0.532276,-0.579987,-0.575473,-0.523895,-0.537273,-0.576602,-0.568381,-0.519704,-0.530181,-0.537273,-0.510355,-0.568059,-0.559194,-0.522928,-0.527441,-0.525184,-0.532921,-0.579664,-0.529858,-0.560161,-0.564513,-0.529697,-0.560806,-0.528569,-0.547105,-0.530987,-0.474089,-0.500201,-0.479892,-0.513257,-0.481503,-0.461355,-0.471188,-0.515030,-0.480375,-0.508099,-0.498750,-0.466674,-0.471994,-0.474411,-0.482954,-0.430408,-0.442175,-0.450556,-0.459260,-0.408326,-0.405586,-0.428796,-0.446365,-0.403168,-0.420092,-0.470382,-0.458132
 13:27:02.,-0.481826,-0.525829,-0.547750,-0.530342,-0.549200,-0.559355,-0.567737,-0.597394,-0.642203,-0.601746,-0.618671,-0.614802,-0.683466,-0.653325,-0.698779,-0.675730,-0.680726,-0.702486,-0.715703,-0.706032,-0.684111,-0.666381,-0.715703,-0.700229,-0.662029,-0.649618,-0.687818,-0.672828,-0.646878,-0.633177,-0.601102,-0.618348,-0.634467,-0.583533,-0.580309,-0.547750,-0.550812,-0.574829,-0.522766,-0.506970,-0.498589,-0.526474,-0.484566,-0.482632,-0.497299,-0.506809,-0.520993,-0.489563,-0.513257,-0.491013,-0.483760,-0.486500,-0.447494,-0.471832,-0.473444,-0.521638,-0.479247,-0.511000,-0.472638,-0.501651,-0.483760,-0.476668,-0.511967,-0.512934,-0.515997,-0.509549,-0.476829,-0.503424,-0.479569,-0.517286,-0.477957,-0.519220,-0.506164,-0.510033,-0.452490,-0.471994,-0.446043,-0.519865,-0.492303,-0.502618,-0.488595,-0.461033,-0.511000,-0.473444,-0.457003,-0.463451,-0.501490,-0.459421,-0.445721,-0.449589,-0.475056,-0.470059,-0.468931,-0.486500,-0.484727,-0.488273,-0.448783,-0.446204,-0.444754,-0.447977,-0.442175,-0.485694,-0.452007,-0.455875,-0.468286,-0.456359,-0.486500,-0.430247,-0.464096,-0.470865,-0.470382,-0.451362,-0.442336,-0.465707,-0.438951,-0.453941,-0.444754,-0.439757,-0.483599,-0.472638,-0.442497,-0.436211,-0.438145,-0.420737,-0.462484,-0.463290,-0.448461,-0.412033,-0.469415,-0.421704,-0.456681,-0.430247,-0.448783,-0.423477,-0.441207,-0.472477,-0.423155,-0.427507,-0.468770,-0.454586,-0.457003,-0.414773,-0.440402,-0.408326,-0.410421,-0.424444,-0.423316,-0.426217,-0.465869,-0.452168,-0.429602,-0.452329,-0.449428,-0.421382,-0.463612,-0.416708,-0.448461,-0.446043,-0.422027,-0.405102,-0.418158,-0.394303,-0.450878,-0.448461,-0.406231,-0.401718,-0.445237,-0.447655,-0.435405,-0.387372,-0.392047,-0.406231,-0.382698,-0.373833,-0.408004,-0.370931,-0.396398,-0.370287,-0.375767,-0.416708,-0.399944,-0.391402,-0.383504,-0.411711,-0.403168,-0.418158,-0.385599,-0.418158,-0.367708,-0.342724,-0.371737,-0.378829,-0.384954,-0.385599,-0.372221,-0.394948,-0.372704,-0.421221,-0.411389,-0.410421,-0.366741,-0.387856,-0.363356,-0.385277,-0.398655,-0.357553,-0.405908,-0.414129,-0.353362,-0.385760,-0.367063,-0.365612,-0.364968,-0.370931,-0.382537,-0.376734,-0.388500,-0.400428,-0.415418,-0.393336,-0.404941,-0.365451,-0.379474,-0.410260,-0.419448,-0.375928,-0.417675,-0.421060,-0.406392,-0.406392,-0.402201,-0.388500,-0.394464,-0.392369,-0.442658,-0.406553,-0.406069,-0.413323,-0.434115,-0.406069,-0.418803,-0.396882,-0.448944,-0.404296,-0.413000,-0.432504,-0.426056,-0.439112,-0.432181,-0.428313,-0.435727,-0.435727,-0.458776,-0.440724,-0.443464,-0.485694,-0.447494,-0.441852,-0.448138,-0.445398,-0.463128,-0.462161,-0.509872,-0.466674,-0.516803,-0.478280,-0.468931,-0.474250,-0.476345,-0.507937,-0.473283,-0.467964,-0.524862,-0.499072,-0.533082,-0.489724,-0.537918,-0.491658,-0.535177,-0.504875,-0.511967,-0.541141,-0.510194,-0.537756,-0.523089,-0.547911,-0.504553,-0.522444,-0.557582,-0.520510,-0.518576,-0.529052,-0.515835,-0.531793,-0.518253,-0.529858,-0.525184,-0.527441,-0.540658,-0.567253,-0.530181,-0.533082,-0.520510,-0.539691,-0.564191,-0.583049,-0.524701,-0.527279,-0.560806,-0.570477,-0.569026,-0.580309,-0.533082,-0.575473,-0.536467,-0.547427,-0.570960,-0.538401,-0.525506,-0.559033,-0.536789,-0.540335,-0.527763,-0.536467,-0.556293,-0.540174,-0.525668,-0.547589,-0.564352,-0.525023,-0.524701,-0.527602,-0.575312,-0.528730,-0.535339,-0.530664,-0.566447,-0.564352,-0.511161,-0.530020,-0.534049,-0.520026,-0.519059,-0.527118,-0.522283,-0.524539,-0.542753,-0.528247,-0.530664,-0.525829,-0.559839,-0.559194,-0.571927,-0.573862,-0.562417,-0.563062,-0.570154,-0.563707,-0.517770,-0.568542,-0.499072,-0.522122,-0.555164,-0.562417,-0.522122,-0.529697,-0.525506,-0.529536,-0.533404,-0.574667,-0.554520,-0.556131,-0.525990,-0.555809,-0.548878,-0.513901,-0.491980,-0.507132,-0.498266,-0.554036,-0.526957,-0.515030,-0.555164,-0.511161,-0.509388,-0.541786,-0.509710,-0.522605,-0.541141,-0.503102,-0.494237,-0.550168,-0.508099,-0.502618,-0.498266,-0.565158,-0.549523,-0.535661,-0.519865,-0.508582,-0.500523,-0.517286,-0.508743,-0.538885,-0.497622,-0.550329,-0.530987,-0.555809,-0.550812,-0.503908,-0.489240,-0.511967,-0.550490,-0.553552,-0.514868,-0.547911,-0.505197,-0.562417,-0.557098,-0.511645,-0.514062,-0.498589,-0.530826,-0.531793,-0.534533,-0.495688,-0.526957,-0.525023,-0.540497,-0.539852,-0.515030,-0.513418,-0.556293,-0.550490,-0.507293,-0.504553,-0.544526,-0.508905,-0.535983,-0.528408,-0.512934,-0.540174,-0.506326,-0.509066,-0.556454,-0.540013,-0.548233,-0.553069,-0.497299,-0.496655,-0.507132,-0.545493,-0.502618,-0.504069,-0.503102,-0.550329,-0.533727,-0.498750,-0.533727,-0.506970,-0.520187,-0.540335,-0.501974,-0.508905,-0.506648,-0.500845,-0.510033,-0.516158,-0.495688,-0.535661,-0.512934,-0.497783,-0.526151,-0.493914,-0.530826,-0.497944,-0.507293,-0.527441,-0.491013,-0.519381,-0.507937,-0.523733,-0.500039,-0.525345,-0.525829,-0.484727,-0.527602,-0.491174,-0.503908,-0.476668,-0.481342,-0.497622,-0.489885,-0.484243,-0.491336,-0.487951,-0.488273,-0.515835,-0.505197,-0.485855,-0.542431,-0.494076,-0.494237,-0.515191,-0.534210,-0.478602,-0.513740,-0.516480,-0.480053,-0.517770,-0.509066,-0.463612,-0.487467,-0.474411,-0.465546,-0.500362,-0.494882,-0.475378,-0.470704,-0.471188,-0.467803,-0.452490,-0.473444,-0.445237,-0.458776,-0.440402,-0.503747,-0.443786,-0.469737,-0.463290,-0.472155,-0.498750,-0.491819,-0.463451,-0.464901,-0.457487,-0.491658,-0.457326,-0.462645,-0.466513,-0.469253,-0.463128,-0.473767,-0.455714,-0.457487,-0.485855,-0.473928,-0.520349,-0.486984,-0.511483,-0.485855,-0.501007,-0.499878,-0.477313,-0.483115,-0.479247,-0.481181,-0.542108,-0.511645,-0.488918,-0.498105,-0.548717,-0.547589,-0.539368,-0.542431,-0.507937,-0.509549,-0.511806,-0.515513,-0.499556,-0.504069,-0.534694,-0.504391,-0.497138,-0.497138,-0.522605,-0.503263,-0.503747,-0.533566,-0.531631,-0.525668,-0.549362,-0.531470,-0.513418,-0.527441,-0.536950,-0.536467,-0.497299,-0.501974,-0.510678,-0.530987,-0.518414,-0.477635,-0.498750,-0.543559,-0.500039,-0.497622,-0.509066,-0.493753,-0.530181,-0.541302,-0.502618,-0.501651,-0.540497,-0.540819,-0.501651,-0.494237,-0.534049,-0.527602,-0.544043,-0.490046,-0.519865,-0.542431,-0.557260,-0.500201,-0.508421,-0.551457,-0.508099,-0.500201,-0.498911,-0.507615,-0.525184,-0.484727,-0.533566,-0.460388,-0.517770,-0.463451,-0.511967,-0.455230,-0.472638,-0.503424,-0.461355,-0.475378,-0.494720,-0.463128,-0.466513,-0.486500,-0.500039,-0.474572,-0.492786,-0.425250,-0.437017,-0.448944,-0.420737,-0.411711,-0.444431,-0.393014,-0.459099,-0.447494,-0.446688,-0.461355,-0.488595,-0.489401,-0.501168,-0.510194,-0.556293,-0.579503,-0.544848,-0.609322,-0.634950,-0.606582,-0.590463,-0.630598,-0.649295,-0.596427,-0.614641,-0.626569,-0.636401,-0.645427,-0.643332,-0.689914,-0.642203,-0.638013,-0.659934,-0.639302,-0.650907,-0.677825,-0.648812,-0.641720,-0.633338,-0.633177,-0.656388,-0.646394,-0.597233,-0.581760,-0.583371,-0.573217,-0.555325,-0.541625,-0.576924,-0.521316,-0.556615,-0.518414,-0.490530,-0.481503,-0.472961,-0.480375,-0.482148,-0.462967,-0.481826,-0.451201,-0.458615,-0.481181,-0.451684,-0.497622,-0.444915,-0.489724,-0.512934,-0.457326,-0.461355,-0.483276,-0.490368,-0.506809,-0.499072,-0.465546,-0.464740,-0.504875,-0.464418,-0.490852,-0.508099,-0.472155,-0.508743,-0.470704,-0.468125,-0.461839,-0.459421,-0.487145,-0.454263,-0.467319,-0.477313,-0.464257,-0.491497,-0.453296,-0.506487,-0.465546,-0.455714,-0.486178,-0.483760,-0.488918,-0.459421,-0.450556,-0.450073,-0.490207,-0.498750,-0.459260,-0.510516,-0.499072,-0.487467,-0.452813,-0.491174,-0.449428,-0.465707,-0.462323,-0.451040,-0.489885,-0.448783,-0.487951,-0.451362,-0.448783,-0.438467,-0.496332,-0.455714,-0.449428,-0.439757,-0.439918,-0.429441,-0.446527,-0.450395,-0.439757,-0.487467,-0.471510,-0.432504,-0.477957,-0.436694,-0.479569,-0.437823,-0.479086,-0.488595,-0.474089,-0.456036,-0.435566,-0.447010,-0.465224,-0.447171,-0.427668,-0.468609,-0.463934,-0.451362,-0.423638,-0.471026,-0.410260,-0.433793,-0.412517,-0.473444,-0.412678,-0.451040,-0.411389,-0.436050,-0.451201,-0.413000,-0.435727,-0.425250,-0.468447,-0.459582,-0.426056,-0.411711,-0.403168,-0.458293,-0.394303,-0.401879,-0.458132,-0.426379,-0.435566,-0.401556,-0.439273,-0.421543,-0.443303,-0.395270,-0.427829,-0.431053,-0.394303,-0.392530,-0.406875,-0.385438,-0.423316,-0.387211,-0.429441,-0.390918,-0.424444,-0.386727,-0.416546,-0.389629,-0.408971,-0.378991,-0.423155,-0.383020,-0.368836,-0.380441,-0.407842,-0.371899,-0.363356,-0.371415,-0.369803,-0.398816,-0.383343,-0.367385,-0.398010,-0.368030,-0.415257,-0.372866,-0.404941,-0.402362,-0.359971,-0.395593,-0.359487,-0.410744,-0.396076,-0.361744,-0.394464,-0.389790,-0.387695,-0.403491,-0.412839,-0.367547,-0.383826,-0.377379,-0.421060,-0.392691,-0.375606,-0.365935,-0.404941,-0.390596,-0.384632,-0.368353,-0.372543,-0.424122,-0.384310,-0.365774,-0.394787,-0.394787,-0.428635,-0.419448,-0.383343,-0.382698,-0.441530,-0.426056,-0.424122,-0.379474,-0.441207,-0.398333,-0.411066,-0.384149,-0.390757,-0.409616,-0.422671,-0.447171,-0.399783,-0.405908,-0.425250,-0.469576,-0.420898,-0.462000,-0.435888,-0.419448,-0.424928,-0.423800,-0.417030,-0.463934,-0.483599,-0.451040,-0.434438,-0.436211,-0.479408,-0.454586,-0.450073,-0.496171,-0.504875,-0.466674,-0.475862,-0.456520,-0.472316,-0.468447,-0.464096,-0.476668,-0.478280,-0.442819,-0.516319,-0.523250,-0.493109,-0.501168,-0.529214,-0.538079,-0.550168,-0.505197,-0.511967,-0.538401,-0.501651,-0.499717,-0.542108,-0.529858,-0.578052,-0.500039,-0.550973,-0.562901,-0.577569,-0.533888,-0.579664,-0.528891,-0.548072,-0.530503,-0.528085,-0.514707,-0.537595,-0.518576,-0.547105,-0.563385,-0.529052,-0.556937,-0.577246,-0.539207,-0.523411,-0.556454,-0.556615,-0.565802,-0.554036,-0.522766,-0.538401,-0.522766,-0.572572,-0.571927,-0.544365,-0.553714,-0.526796,-0.556615,-0.525506,-0.507454,-0.538724,-0.554681,-0.561934,-0.521155,-0.537595,-0.537756,-0.528247,-0.531309,-0.579019,-0.561128,-0.537273,-0.526312,-0.580148,-0.502780,-0.523250,-0.553714,-0.516641,-0.508582,-0.529214,-0.539852,-0.542592,-0.525023,-0.540335,-0.556131
 13:27:03.,-0.555970,-0.511161,-0.537434,-0.560806,-0.519059,-0.515674,-0.553391,-0.507776,-0.560161,-0.563868,-0.567737,-0.552263,-0.565480,-0.561289,-0.517608,-0.516158,-0.514868,-0.527441,-0.572894,-0.522766,-0.516964,-0.513740,-0.519704,-0.530342,-0.515513,-0.542108,-0.523411,-0.560000,-0.511161,-0.556615,-0.502941,-0.546944,-0.537273,-0.549684,-0.521316,-0.522928,-0.505359,-0.513418,-0.506809,-0.551779,-0.493109,-0.553552,-0.497138,-0.535177,-0.533566,-0.507937,-0.504230,-0.503747,-0.557582,-0.522444,-0.521638,-0.528247,-0.528085,-0.507293,-0.508421,-0.507776,-0.540497,-0.522928,-0.502296,-0.490530,-0.544365,-0.518576,-0.505197,-0.563868,-0.494882,-0.551941,-0.539207,-0.521799,-0.536467,-0.546622,-0.499717,-0.550973,-0.496010,-0.544204,-0.488757,-0.508260,-0.497622,-0.559839,-0.501329,-0.558227,-0.494720,-0.507937,-0.492786,-0.544204,-0.543720,-0.495526,-0.504714,-0.536467,-0.489724,-0.540174,-0.505359,-0.544848,-0.510355,-0.513418,-0.513095,-0.552263,-0.509549,-0.522766,-0.509549,-0.529697,-0.521316,-0.544043,-0.506003,-0.527924,-0.518253,-0.556293,-0.519381,-0.514385,-0.563868,-0.513418,-0.522283,-0.527279,-0.550812,-0.563062,-0.512934,-0.559355,-0.567253,-0.551941,-0.510839,-0.521316,-0.551618,-0.528891,-0.522283,-0.529375,-0.512128,-0.512934,-0.493753,-0.559355,-0.527924,-0.513257,-0.556937,-0.523572,-0.524539,-0.553875,-0.535177,-0.518898,-0.526312,-0.553714,-0.548233,-0.558227,-0.540658,-0.516480,-0.491819,-0.551618,-0.488918,-0.492786,-0.515997,-0.500039,-0.492464,-0.503424,-0.501168,-0.551457,-0.541947,-0.505359,-0.520187,-0.533888,-0.502780,-0.489079,-0.505197,-0.491336,-0.471994,-0.506487,-0.492464,-0.526635,-0.511161,-0.534049,-0.543075,-0.506326,-0.519704,-0.497783,-0.503747,-0.516964,-0.495043,-0.502135,-0.480697,-0.544043,-0.466513,-0.480859,-0.491658,-0.535016,-0.521316,-0.510516,-0.519381,-0.502135,-0.531309,-0.510033,-0.484405,-0.527602,-0.522283,-0.483115,-0.500684,-0.456681,-0.473444,-0.501974,-0.479408,-0.482793,-0.521638,-0.477151,-0.468770,-0.511161,-0.466674,-0.499878,-0.501812,-0.507937,-0.475056,-0.486178,-0.466352,-0.510033,-0.508260,-0.521638,-0.524701,-0.485855,-0.516158,-0.478118,-0.497783,-0.536789,-0.494882,-0.489401,-0.491497,-0.530664,-0.482954,-0.496010,-0.485533,-0.494559,-0.538885,-0.535339,-0.514546,-0.485533,-0.504553,-0.497299,-0.565319,-0.544204,-0.549684,-0.530020,-0.510033,-0.513095,-0.514224,-0.541947,-0.511000,-0.535661,-0.534533,-0.514707,-0.546783,-0.535983,-0.523411,-0.553552,-0.520671,-0.548395,-0.567092,-0.522928,-0.572411,-0.506809,-0.550006,-0.545654,-0.551296,-0.543881,-0.545493,-0.508743,-0.497138,-0.494398,-0.481987,-0.539368,-0.514707,-0.545654,-0.561289,-0.548717,-0.530342,-0.523411,-0.542431,-0.519381,-0.516964,-0.559677,-0.555164,-0.505197,-0.507937,-0.524539,-0.542270,-0.511645,-0.550006,-0.518898,-0.530181,-0.540980,-0.522122,-0.537918,-0.539852,-0.548717,-0.504230,-0.493592,-0.496655,-0.506326,-0.518737,-0.507776,-0.488918,-0.491336,-0.462806,-0.479086,-0.514224,-0.521316,-0.480375,-0.464096,-0.485694,-0.462000,-0.464740,-0.499072,-0.446043,-0.445882,-0.433471,-0.452813,-0.414773,-0.435727,-0.466513,-0.466836,-0.424283,-0.473605,-0.452490,-0.441852,-0.450234,-0.484727,-0.501168,-0.541947,-0.513740,-0.580954,-0.561289,-0.565802,-0.592559,-0.575151,-0.639947,-0.652519,-0.603680,-0.616575,-0.635756,-0.644943,-0.626246,-0.620444,-0.676697,-0.633661,-0.661707,-0.644299,-0.672345,-0.683628,-0.693782,-0.636401,-0.662674,-0.650746,-0.689269,-0.658805,-0.644138,-0.618993,-0.657193,-0.613352,-0.603842,-0.633016,-0.598039,-0.568059,-0.593687,-0.548233,-0.562740,-0.502941,-0.516480,-0.510678,-0.533727,-0.494882,-0.488595,-0.491819,-0.502941,-0.471832,-0.491497,-0.476668,-0.456681,-0.511000,-0.450717,-0.473767,-0.475378,-0.450073,-0.473283,-0.483599,-0.497299,-0.503585,-0.497944,-0.476990,-0.499717,-0.467642,-0.513095,-0.505681,-0.508099,-0.458776,-0.505520,-0.458615,-0.453457,-0.497944,-0.465385,-0.461517,-0.452974,-0.456681,-0.489885,-0.456359,-0.503424,-0.462967,-0.465707,-0.479408,-0.484888,-0.460066,-0.465869,-0.466191,-0.453457,-0.443948,-0.483921,-0.451201,-0.493914,-0.442980,-0.433148,-0.486984,-0.496655,-0.499556,-0.487628,-0.463128,-0.492625,-0.442336,-0.464579,-0.440885,-0.455230,-0.483760,-0.473122,-0.493109,-0.425250,-0.481181,-0.473122,-0.488112,-0.483438,-0.441207,-0.432020,-0.441207,-0.467158,-0.489563,-0.419931,-0.427507,-0.465385,-0.441207,-0.452813,-0.452329,-0.426701,-0.444270,-0.420092,-0.477474,-0.472799,-0.427668,-0.444431,-0.468447,-0.468770,-0.470865,-0.448138,-0.436372,-0.465063,-0.452168,-0.471671,-0.417513,-0.439434,-0.454908,-0.447494,-0.420415,-0.424767,-0.436856,-0.458132,-0.408971,-0.419609,-0.455553,-0.432504,-0.453619,-0.440563,-0.400428,-0.420898,-0.410099,-0.456359,-0.423155,-0.404780,-0.458293,-0.428635,-0.427023,-0.440240,-0.408487,-0.409777,-0.433793,-0.407842,-0.446365,-0.436533,-0.452490,-0.427990,-0.390757,-0.405264,-0.380280,-0.437017,-0.380764,-0.385438,-0.379635,-0.397527,-0.424606,-0.406714,-0.391563,-0.401395,-0.390435,-0.418964,-0.429441,-0.403329,-0.420092,-0.425411,-0.379797,-0.383987,-0.414451,-0.396882,-0.366902,-0.403652,-0.373672,-0.392852,-0.393658,-0.425411,-0.416385,-0.384632,-0.375767,-0.387050,-0.387372,-0.371093,-0.370126,-0.400912,-0.389468,-0.407681,-0.402040,-0.360132,-0.403813,-0.425734,-0.371899,-0.390757,-0.404135,-0.411389,-0.400912,-0.380280,-0.387211,-0.377862,-0.379474,-0.376734,-0.361260,-0.396721,-0.398816,-0.421704,-0.404619,-0.433148,-0.392530,-0.436694,-0.398171,-0.397527,-0.436856,-0.411550,-0.408326,-0.442013,-0.411066,-0.439757,-0.402201,-0.427185,-0.457487,-0.393336,-0.447655,-0.400106,-0.458293,-0.423316,-0.459905,-0.419448,-0.442175,-0.440402,-0.475701,-0.474250,-0.447171,-0.462645,-0.434921,-0.470221,-0.434921,-0.475217,-0.484888,-0.485211,-0.452974,-0.449105,-0.476829,-0.460388,-0.463934,-0.507776,-0.485372,-0.468931,-0.506164,-0.512451,-0.512128,-0.461194,-0.515997,-0.471510,-0.475056,-0.518414,-0.498589,-0.528891,-0.492464,-0.495365,-0.492947,-0.491980,-0.502296,-0.505681,-0.535822,-0.508099,-0.543720,-0.513257,-0.561773,-0.504391,-0.508260,-0.549039,-0.532276,-0.531470,-0.520671,-0.521155,-0.550973,-0.559677,-0.531148,-0.532437,-0.558549,-0.570154,-0.526312,-0.528730,-0.521799,-0.539691,-0.514224,-0.582243,-0.536145,-0.525668,-0.565480,-0.527763,-0.547589,-0.537918,-0.567092,-0.565802,-0.525829,-0.593848,-0.541625,-0.533082,-0.532599,-0.528247,-0.544204,-0.535016,-0.524378,-0.527763,-0.561450,-0.577730,-0.564996,-0.543075,-0.520187,-0.543398,-0.556454,-0.529052,-0.536789,-0.544848,-0.562740,-0.519865,-0.511645,-0.512773,-0.513418,-0.573056,-0.550006,-0.521799,-0.535339,-0.528891,-0.532437,-0.565319,-0.519865,-0.555164,-0.541625,-0.519543,-0.564029,-0.508260,-0.505359,-0.516480,-0.561934,-0.544848,-0.516641,-0.503747,-0.526796,-0.513418,-0.535177,-0.513740,-0.561450,-0.513901,-0.559194,-0.562256,-0.521799,-0.517286,-0.519543,-0.506003,-0.516480,-0.552424,-0.560000,-0.545816,-0.506164,-0.547105,-0.566286,-0.516480,-0.557743,-0.549523,-0.518092,-0.512934,-0.554681,-0.505842,-0.546460,-0.503424,-0.491013,-0.506648,-0.510194,-0.500362,-0.511806,-0.518253,-0.538079,-0.509388,-0.552746,-0.502457,-0.550329,-0.517931,-0.524862,-0.516158,-0.510355,-0.514707,-0.504553,-0.514224,-0.500523,-0.531631,-0.503263,-0.509710,-0.550329,-0.551135,-0.511806,-0.513579,-0.508905,-0.548717,-0.504230,-0.549684,-0.546944,-0.503424,-0.548072,-0.539852,-0.499878,-0.555809,-0.501812,-0.508421,-0.536789,-0.561128,-0.499234,-0.545654,-0.507776,-0.547750,-0.509710,-0.550006,-0.499072,-0.533404,-0.542270,-0.549523,-0.490852,-0.562740,-0.546944,-0.544043,-0.531631,-0.520187,-0.512612,-0.507293,-0.539852,-0.521155,-0.513418,-0.539207,-0.506809,-0.524217,-0.504553,-0.508421,-0.548233,-0.548072,-0.507293,-0.526957,-0.548878,-0.552424,-0.519220,-0.527441,-0.555648,-0.550168,-0.546299,-0.511645,-0.512612,-0.556937,-0.502296,-0.509710,-0.516964,-0.541141,-0.520671,-0.550168,-0.499717,-0.540497,-0.513901,-0.516964,-0.526474,-0.559033,-0.527924,-0.549684,-0.548878,-0.501168,-0.559516,-0.550490,-0.548233,-0.507454,-0.549845,-0.507615,-0.560483,-0.549200,-0.573378,-0.541786,-0.549362,-0.554358,-0.525506,-0.552908,-0.534855,-0.541786,-0.505681,-0.515513,-0.507293,-0.539529,-0.508421,-0.512451,-0.503424,-0.491819,-0.539046,-0.487467,-0.534210,-0.514224,-0.501651,-0.542108,-0.542108,-0.498266,-0.505842,-0.492786,-0.530342,-0.497138,-0.502941,-0.489724,-0.538724,-0.467803,-0.513095,-0.487145,-0.505520,-0.533888,-0.541302,-0.497783,-0.506164,-0.512289,-0.538401,-0.498266,-0.537273,-0.520510,-0.494237,-0.527279,-0.506003,-0.505197,-0.540335,-0.520832,-0.494559,-0.501007,-0.544043,-0.492947,-0.504553,-0.506164,-0.485855,-0.539368,-0.534533,-0.522605,-0.522605,-0.517286,-0.494398,-0.518253,-0.518092,-0.522766,-0.457487,-0.494720,-0.476184,-0.493753,-0.474089,-0.520671,-0.517770,-0.530181,-0.533082,-0.511000,-0.498589,-0.535339,-0.470221,-0.532276,-0.516319,-0.524378,-0.468931,-0.479086,-0.485211,-0.533082,-0.539529,-0.503102,-0.492786,-0.506487,-0.504714,-0.493914,-0.523411,-0.495043,-0.540013,-0.535983,-0.533082,-0.542431,-0.528730,-0.487306,-0.530826,-0.555970,-0.516480,-0.541464,-0.516319,-0.515835,-0.525506,-0.561612,-0.513257,-0.527602,-0.510355,-0.556293,-0.520026,-0.514546,-0.510194,-0.503908,-0.504391,-0.567575,-0.550490,-0.574345,-0.512289,-0.551296,-0.544043,-0.512289,-0.523572,-0.548395,-0.538079,-0.527279,-0.507132,-0.562417,-0.550651,-0.505359,-0.533082,-0.511806,-0.514224,-0.504391,-0.501812,-0.555809,-0.550006,-0.506648,-0.516803,-0.566608,-0.515835,-0.570799,-0.552263,-0.511322,-0.502941,-0.509388,-0.505197,-0.519059,-0.499878,-0.515997,-0.553391,-0.526957,-0.514224,-0.518576,-0.566125,-0.523250,-0.541625,-0.547266,-0.496332,-0.498911,-0.491013,-0.502618,-0.503585,-0.497461,-0.482309,-0.478763,-0.486984,-0.504875,-0.471994,-0.464579,-0.471026,-0.512773,-0.451362,-0.453619,-0.456681,-0.480697,-0.448944,-0.459260,-0.431536,-0.418803,-0.439434,-0.405586,-0.398010,-0.411550,-0.436533,-0.441046,-0.395593,-0.432181,-0.377540
 13:27:04.,-0.387856,-0.395593,-0.425411,-0.469737,-0.446688,-0.525023,-0.495688,-0.521638,-0.550168,-0.618509,-0.601263,-0.641075,-0.633661,-0.648973,-0.683144,-0.665253,-0.663318,-0.668799,-0.693137,-0.688947,-0.654131,-0.644460,-0.657516,-0.650101,-0.665414,-0.663318,-0.691203,-0.683144,-0.679920,-0.636240,-0.682499,-0.625118,-0.660578,-0.644138,-0.609644,-0.594493,-0.614157,-0.593042,-0.550490,-0.574506,-0.573056,-0.556131,-0.509710,-0.503102,-0.525345,-0.488434,-0.527279,-0.518576,-0.472961,-0.475862,-0.510839,-0.474411,-0.466030,-0.478280,-0.512289,-0.503585,-0.468931,-0.488918,-0.468931,-0.502457,-0.507454,-0.473122,-0.497461,-0.510839,-0.482148,-0.464579,-0.515674,-0.485855,-0.501651,-0.460549,-0.511483,-0.454586,-0.485694,-0.484566,-0.475378,-0.498266,-0.493270,-0.480375,-0.481665,-0.466997,-0.515835,-0.509549,-0.496493,-0.515352,-0.458454,-0.452813,-0.464740,-0.474734,-0.449105,-0.507615,-0.504391,-0.445559,-0.450717,-0.453941,-0.459582,-0.442336,-0.453780,-0.444431,-0.496010,-0.469576,-0.472316,-0.440079,-0.457809,-0.455230,-0.468447,-0.442175,-0.482470,-0.456036,-0.495365,-0.495688,-0.438306,-0.436694,-0.454586,-0.439757,-0.467964,-0.452329,-0.499878,-0.447010,-0.445559,-0.484405,-0.475862,-0.487951,-0.473122,-0.435405,-0.463612,-0.474572,-0.469737,-0.439434,-0.430731,-0.432020,-0.483276,-0.438790,-0.437823,-0.444109,-0.486661,-0.469576,-0.427829,-0.430086,-0.471349,-0.428313,-0.434115,-0.422671,-0.451523,-0.411550,-0.466836,-0.465063,-0.441852,-0.443786,-0.434277,-0.418158,-0.467480,-0.465869,-0.424606,-0.411389,-0.422510,-0.445076,-0.423961,-0.455875,-0.408810,-0.425250,-0.428796,-0.447171,-0.422833,-0.464257,-0.458293,-0.413645,-0.415096,-0.462161,-0.415740,-0.445237,-0.403007,-0.403168,-0.417352,-0.455392,-0.446849,-0.391241,-0.391563,-0.418481,-0.432342,-0.438790,-0.396076,-0.413000,-0.386083,-0.396560,-0.403652,-0.406392,-0.402201,-0.389145,-0.397204,-0.415902,-0.389629,-0.402362,-0.408810,-0.434599,-0.387211,-0.442819,-0.408971,-0.437178,-0.419287,-0.417352,-0.410421,-0.378507,-0.403007,-0.400428,-0.381892,-0.393175,-0.411872,-0.429602,-0.350300,-0.387695,-0.376251,-0.422671,-0.387856,-0.389145,-0.373672,-0.389468,-0.421221,-0.376251,-0.407198,-0.378991,-0.363517,-0.426217,-0.405425,-0.428635,-0.403007,-0.426540,-0.406392,-0.403168,-0.428958,-0.405425,-0.429925,-0.414612,-0.421704,-0.408648,-0.394625,-0.435244,-0.443948,-0.399139,-0.395431,-0.441691,-0.402846,-0.440563,-0.403329,-0.438145,-0.452007,-0.445559,-0.407198,-0.415579,-0.469737,-0.465224,-0.431859,-0.424283,-0.429119,-0.446365,-0.466836,-0.486016,-0.468447,-0.432826,-0.477151,-0.467158,-0.431859,-0.448622,-0.444592,-0.467158,-0.458776,-0.476023,-0.467964,-0.523089,-0.503747,-0.506003,-0.469737,-0.477313,-0.512451,-0.506648,-0.466352,-0.512934,-0.494720,-0.479892,-0.511645,-0.533566,-0.486339,-0.491819,-0.534533,-0.533404,-0.495688,-0.507937,-0.504069,-0.505036,-0.502941,-0.499878,-0.496010,-0.514868,-0.548072,-0.559194,-0.506003,-0.521638,-0.547427,-0.553875,-0.526312,-0.555487,-0.513740,-0.522122,-0.528085,-0.539368,-0.519381,-0.530664,-0.516158,-0.539852,-0.518092,-0.558871,-0.532115,-0.557098,-0.575957,-0.522444,-0.551618,-0.580792,-0.565802,-0.567737,-0.589335,-0.529214,-0.534049,-0.570477,-0.550651,-0.521638,-0.583855,-0.526796,-0.519220,-0.555487,-0.529052,-0.533566,-0.564674,-0.524217,-0.564191,-0.519059,-0.528730,-0.553875,-0.569993,-0.498105,-0.559516,-0.521799,-0.560806,-0.507293,-0.507937,-0.525506,-0.562095,-0.509549,-0.533082,-0.560000,-0.553875,-0.563707,-0.531631,-0.523089,-0.562095,-0.529375,-0.514224,-0.510033,-0.538885,-0.497299,-0.519220,-0.498911,-0.549523,-0.520510,-0.564674,-0.568704,-0.526474,-0.522122,-0.517931,-0.531470,-0.522605,-0.515191,-0.541464,-0.501168,-0.570638,-0.498750,-0.510839,-0.544526,-0.510194,-0.509388,-0.528891,-0.507937,-0.545171,-0.549039,-0.521477,-0.504553,-0.560483,-0.496010,-0.512451,-0.518092,-0.517770,-0.557260,-0.523733,-0.540174,-0.511322,-0.497783,-0.554520,-0.504069,-0.556454,-0.518898,-0.564513,-0.521316,-0.525023,-0.512612,-0.515674,-0.514385,-0.549684,-0.545977,-0.564835,-0.545816,-0.515835,-0.539852,-0.516480,-0.498589,-0.516803,-0.556454,-0.550329,-0.511161,-0.554681,-0.508099,-0.513418,-0.504230,-0.524217,-0.524539,-0.512612,-0.536306,-0.509227,-0.511645,-0.513418,-0.549362,-0.505036,-0.500201,-0.503424,-0.511000,-0.511967,-0.498911,-0.565158,-0.548717,-0.557421,-0.507454,-0.545977,-0.526312,-0.497783,-0.540658,-0.506326,-0.526635,-0.566608,-0.528408,-0.550006,-0.551618,-0.549039,-0.511806,-0.560967,-0.506326,-0.509227,-0.495526,-0.506164,-0.535177,-0.519059,-0.541464,-0.513418,-0.484727,-0.546460,-0.533404,-0.555164,-0.541947,-0.543881,-0.549039,-0.534210,-0.559516,-0.559677,-0.509066,-0.504553,-0.546783,-0.538240,-0.538724,-0.551618,-0.489240,-0.500845,-0.543237,-0.528085,-0.513095,-0.534533,-0.497138,-0.521960,-0.536628,-0.510839,-0.509872,-0.513095,-0.533243,-0.522928,-0.505036,-0.520026,-0.493592,-0.532115,-0.486339,-0.504069,-0.495526,-0.518414,-0.492947,-0.550490,-0.550006,-0.511161,-0.504553,-0.525668,-0.530503,-0.551296,-0.488918,-0.507615,-0.489401,-0.548556,-0.534533,-0.511806,-0.506809,-0.501007,-0.544526,-0.504230,-0.540335,-0.504714,-0.544043,-0.526474,-0.524539,-0.533566,-0.536467,-0.488918,-0.536950,-0.489724,-0.483921,-0.501974,-0.522766,-0.504069,-0.523733,-0.519865,-0.496816,-0.507454,-0.509549,-0.491013,-0.485211,-0.490046,-0.489240,-0.494076,-0.476184,-0.486822,-0.509549,-0.532276,-0.475378,-0.482148,-0.471510,-0.485049,-0.501168,-0.492786,-0.515835,-0.518414,-0.483599,-0.501329,-0.490691,-0.480536,-0.486984,-0.496171,-0.501490,-0.484727,-0.497783,-0.479086,-0.478280,-0.514224,-0.490046,-0.535983,-0.521799,-0.485372,-0.515513,-0.516158,-0.480375,-0.510839,-0.485372,-0.469092,-0.460549,-0.453135,-0.457971,-0.466352,-0.463128,-0.456198,-0.492303,-0.515191,-0.455875,-0.457971,-0.457326,-0.487790,-0.502457,-0.506326,-0.458293,-0.455069,-0.460872,-0.496816,-0.458293,-0.466352,-0.466352,-0.464740,-0.507454,-0.479892,-0.476184,-0.474572,-0.469737,-0.499556,-0.522928,-0.515191,-0.460066,-0.467964,-0.469737,-0.472316,-0.472799,-0.481665,-0.460711,-0.503908,-0.525345,-0.478280,-0.517770,-0.525506,-0.473928,-0.482470,-0.525506,-0.484727,-0.486984,-0.538724,-0.505197,-0.502296,-0.528247,-0.537756,-0.528569,-0.549362,-0.521316,-0.549845,-0.495526,-0.541141,-0.506809,-0.533404,-0.504875,-0.497299,-0.527118,-0.544848,-0.503424,-0.540980,-0.491497,-0.495849,-0.504714,-0.481826,-0.487951,-0.512289,-0.512128,-0.535016,-0.517447,-0.496977,-0.552424,-0.534855,-0.503424,-0.538885,-0.536628,-0.519865,-0.490368,-0.518092,-0.509549,-0.487467,-0.507615,-0.533082,-0.515513,-0.506326,-0.520026,-0.506003,-0.554681,-0.504875,-0.530181,-0.513418,-0.539691,-0.500845,-0.522444,-0.493753,-0.552102,-0.529697,-0.484405,-0.477474,-0.489885,-0.490207,-0.478763,-0.462967,-0.502135,-0.459099,-0.476668,-0.471349,-0.480053,-0.476990,-0.444754,-0.475056,-0.438467,-0.451684,-0.482793,-0.472477,-0.479569,-0.462323,-0.439434,-0.421221,-0.451523,-0.438467,-0.426217,-0.378024,-0.359971,-0.392691,-0.378346,-0.381570,-0.385922,-0.393175,-0.465869,-0.468609,-0.458938,-0.482793,-0.499072,-0.530342,-0.569993,-0.595621,-0.645427,-0.667832,-0.626085,-0.648973,-0.684756,-0.697167,-0.668476,-0.688141,-0.630598,-0.686690,-0.669927,-0.661384,-0.650101,-0.713769,-0.710706,-0.692654,-0.676374,-0.695072,-0.664769,-0.683144,-0.685723,-0.657838,-0.662029,-0.608677,-0.629470,-0.573378,-0.579825,-0.609967,-0.559033,-0.549200,-0.535500,-0.512612,-0.498911,-0.546299,-0.487145,-0.466030,-0.466352,-0.487628,-0.485533,-0.456520,-0.509388,-0.472477,-0.509710,-0.510355,-0.463934,-0.467642,-0.458776,-0.483760,-0.477796,-0.464418,-0.464257,-0.490207,-0.496816,-0.465224,-0.505036,-0.459421,-0.462484,-0.499878,-0.452813,-0.502135,-0.450073,-0.482148,-0.507615,-0.452652,-0.462000,-0.465224,-0.469576,-0.461678,-0.460711,-0.460066,-0.468447,-0.476023,-0.481826,-0.493109,-0.480214,-0.451684,-0.458938,-0.444754,-0.489240,-0.487145,-0.456359,-0.466191,-0.477796,-0.490691,-0.495526,-0.458776,-0.451362,-0.454425,-0.456198,-0.438951,-0.455230,-0.471994,-0.443142,-0.431214,-0.437339,-0.496655,-0.449105,-0.475862,-0.451523,-0.446527,-0.472799,-0.452652,-0.441369,-0.443948,-0.476184,-0.431698,-0.473283,-0.440402,-0.479247,-0.453780,-0.423800,-0.438790,-0.435888,-0.453457,-0.434921,-0.474411,-0.454586,-0.439273,-0.443142,-0.466352,-0.462323,-0.471349,-0.428635,-0.443786,-0.468931,-0.449428,-0.441852,-0.495526,-0.444431,-0.448622,-0.436372,-0.467803,-0.444109,-0.423800,-0.441046,-0.464096,-0.452490,-0.413645,-0.408326,-0.423638,-0.459905,-0.417836,-0.450717,-0.456520,-0.404135,-0.456520,-0.428152,-0.416869,-0.455714,-0.419448,-0.417997,-0.451040,-0.449750,-0.412033,-0.389951,-0.423961,-0.397204,-0.400912,-0.408810,-0.409938,-0.400750,-0.408326,-0.391402,-0.442013,-0.438951,-0.408810,-0.382698,-0.418642,-0.407037,-0.395431,-0.427829,-0.430247,-0.421382,-0.429280,-0.426217,-0.377540,-0.378507,-0.444270,-0.375122,-0.441852,-0.380119,-0.421060,-0.378185,-0.399300,-0.400106,-0.398977,-0.438467,-0.393497,-0.416385,-0.387372,-0.399139,-0.391563,-0.383343,-0.390757,-0.405264,-0.410260,-0.429280,-0.387533,-0.381570,-0.381570,-0.419609,-0.413967,-0.422510,-0.378668,-0.382698,-0.382859,-0.389306,-0.402201,-0.416869,-0.363356,-0.387856,-0.414290,-0.401718,-0.395270,-0.415740,-0.390273,-0.428958,-0.396560,-0.420415,-0.429280,-0.387856,-0.390435,-0.401556,-0.407681,-0.390273,-0.388984,-0.430731,-0.406875,-0.385922,-0.422671,-0.448944,-0.394948,-0.450073,-0.419609,-0.412356,-0.423316,-0.455392,-0.403491,-0.463128,-0.433632,-0.464418,-0.420415,-0.434438,-0.436211,-0.427023,-0.464096,-0.482793,-0.443948,-0.459260,-0.483276,-0.479892,-0.453619,-0.433954,-0.442013,-0.444915,-0.491497,-0.490691,-0.450234,-0.474572,-0.458454,-0.460711,-0.474250,-0.460388,-0.527924,-0.472477,-0.482954,-0.481181,-0.496171,-0.527279,-0.486661,-0.518414,-0.497461,-0.523250,-0.499072,-0.525506,-0.512289,-0.534694,-0.510033,-0.544204,-0.549523,-0.544848,-0.553552,-0.543075,-0.536789,-0.542108
 13:27:05.,-0.552908,-0.560644,-0.529214,-0.504069,-0.572089,-0.504875,-0.577891,-0.524862,-0.515997,-0.544043,-0.538079,-0.536950,-0.538079,-0.532921,-0.576602,-0.526312,-0.567737,-0.537273,-0.550973,-0.540497,-0.529858,-0.527118,-0.569510,-0.523411,-0.584338,-0.517286,-0.541302,-0.573700,-0.550812,-0.573862,-0.541302,-0.570477,-0.563868,-0.548233,-0.531631,-0.583371,-0.577569,-0.514868,-0.546138,-0.556131,-0.526957,-0.530826,-0.515835,-0.565802,-0.516158,-0.572411,-0.559839,-0.523411,-0.532115,-0.529697,-0.529052,-0.527279,-0.568381,-0.560000,-0.542914,-0.509872,-0.527763,-0.506003,-0.517125,-0.550812,-0.532599,-0.507776,-0.514224,-0.560967,-0.544848,-0.516480,-0.580792,-0.540013,-0.522766,-0.551457,-0.563546,-0.551618,-0.522605,-0.505842,-0.554036,-0.536628,-0.503747,-0.516964,-0.528730,-0.528085,-0.501329,-0.573217,-0.505197,-0.555164,-0.508905,-0.538885,-0.553714,-0.509872,-0.542270,-0.506487,-0.549362,-0.508743,-0.540980,-0.568865,-0.497783,-0.519059,-0.556776,-0.517770,-0.522766,-0.560322,-0.550006,-0.521316,-0.519543,-0.550006,-0.507776,-0.553714,-0.544687,-0.523733,-0.505842,-0.517608,-0.508743,-0.512289,-0.509872,-0.531148,-0.528085,-0.518092,-0.528891,-0.499234,-0.504553,-0.552908,-0.493270,-0.554036,-0.493914,-0.517608,-0.540658,-0.508421,-0.496977,-0.501168,-0.508421,-0.554681,-0.550329,-0.523089,-0.514224,-0.498750,-0.540013,-0.520832,-0.504391,-0.512773,-0.542431,-0.541302,-0.522928,-0.508421,-0.505036,-0.558227,-0.537756,-0.501168,-0.539207,-0.506003,-0.556776,-0.506164,-0.501007,-0.519059,-0.544043,-0.506326,-0.503747,-0.548878,-0.547750,-0.497783,-0.510194,-0.486984,-0.546783,-0.543720,-0.545010,-0.538079,-0.541141,-0.543075,-0.542592,-0.523089,-0.527924,-0.530342,-0.533727,-0.495849,-0.513740,-0.535500,-0.502135,-0.516641,-0.542270,-0.546138,-0.510033,-0.549845,-0.535177,-0.514385,-0.501651,-0.503908,-0.562095,-0.492141,-0.525023,-0.524862,-0.549200,-0.501490,-0.498428,-0.486984,-0.494720,-0.488918,-0.499717,-0.493914,-0.530826,-0.490530,-0.551941,-0.516641,-0.502296,-0.496332,-0.501007,-0.535822,-0.531631,-0.526957,-0.493270,-0.489563,-0.547105,-0.506164,-0.557260,-0.495526,-0.518092,-0.505842,-0.511483,-0.514546,-0.497138,-0.516964,-0.491013,-0.514385,-0.534210,-0.498105,-0.495849,-0.478280,-0.475378,-0.522444,-0.495688,-0.516641,-0.538240,-0.544526,-0.500039,-0.552746,-0.545654,-0.498911,-0.534855,-0.508260,-0.506487,-0.518737,-0.495688,-0.506003,-0.506326,-0.500523,-0.489240,-0.556937,-0.503263,-0.511967,-0.525506,-0.496010,-0.496493,-0.500362,-0.534694,-0.531148,-0.481181,-0.494398,-0.473444,-0.533404,-0.515674,-0.525506,-0.491658,-0.504391,-0.518414,-0.491658,-0.532115,-0.514707,-0.531631,-0.536950,-0.500684,-0.476184,-0.501329,-0.478118,-0.474734,-0.493753,-0.512451,-0.487951,-0.517125,-0.531470,-0.475862,-0.486016,-0.477474,-0.515835,-0.482148,-0.475378,-0.497783,-0.491819,-0.485855,-0.521316,-0.472638,-0.494559,-0.466030,-0.502941,-0.458293,-0.477313,-0.515030,-0.493431,-0.512612,-0.506970,-0.486500,-0.459260,-0.478118,-0.511967,-0.465224,-0.444915,-0.502457,-0.498105,-0.501168,-0.441046,-0.506164,-0.448783,-0.497944,-0.451684,-0.457326,-0.479730,-0.501651,-0.490368,-0.479086,-0.497783,-0.473928,-0.474250,-0.515513,-0.502296,-0.496655,-0.449750,-0.445398,-0.470382,-0.492303,-0.508582,-0.452007,-0.503263,-0.467480,-0.516480,-0.468609,-0.474250,-0.509388,-0.470221,-0.513257,-0.533888,-0.469576,-0.523089,-0.514546,-0.509710,-0.473283,-0.481020,-0.535016,-0.501168,-0.534372,-0.500201,-0.545493,-0.519059,-0.511645,-0.545010,-0.531631,-0.533404,-0.516964,-0.520187,-0.501007,-0.554197,-0.513257,-0.519381,-0.501974,-0.531309,-0.504714,-0.530503,-0.511483,-0.521960,-0.504553,-0.548395,-0.527924,-0.509710,-0.515674,-0.501812,-0.539529,-0.538401,-0.535016,-0.498750,-0.512289,-0.503424,-0.546299,-0.526635,-0.506326,-0.499717,-0.550812,-0.503908,-0.503908,-0.495688,-0.536145,-0.521799,-0.499556,-0.528891,-0.541302,-0.484566,-0.506003,-0.540819,-0.541302,-0.520671,-0.535983,-0.505842,-0.553391,-0.533243,-0.484405,-0.481181,-0.503263,-0.498750,-0.491336,-0.450234,-0.488918,-0.482954,-0.477151,-0.449428,-0.461517,-0.444592,-0.445076,-0.490046,-0.493431,-0.487145,-0.454586,-0.481503,-0.441046,-0.437178,-0.441691,-0.425411,-0.458132,-0.408971,-0.446043,-0.386244,-0.412033,-0.395754,-0.404296,-0.401718,-0.409777,-0.416385,-0.477313,-0.493914,-0.485694,-0.540013,-0.549039,-0.537918,-0.598039,-0.565319,-0.585628,-0.594009,-0.617220,-0.611095,-0.627858,-0.665736,-0.637529,-0.634628,-0.680887,-0.643976,-0.643493,-0.642848,-0.665091,-0.670088,-0.649618,-0.693460,-0.653809,-0.688463,-0.648328,-0.694105,-0.673634,-0.629792,-0.624634,-0.645105,-0.592236,-0.640430,-0.572894,-0.571927,-0.545171,-0.552585,-0.523089,-0.511806,-0.494237,-0.498911,-0.519865,-0.503102,-0.455553,-0.468125,-0.509710,-0.483599,-0.457326,-0.484243,-0.465385,-0.469253,-0.466352,-0.473767,-0.478118,-0.478441,-0.491336,-0.460872,-0.510194,-0.466513,-0.453296,-0.468125,-0.501007,-0.471026,-0.462645,-0.494398,-0.491013,-0.447816,-0.470865,-0.493270,-0.462161,-0.490368,-0.490207,-0.453457,-0.498105,-0.457648,-0.456842,-0.443303,-0.462000,-0.438306,-0.448461,-0.438951,-0.488918,-0.459744,-0.472477,-0.452813,-0.453780,-0.461839,-0.483599,-0.483760,-0.492947,-0.486500,-0.438467,-0.446204,-0.479408,-0.451201,-0.468447,-0.445721,-0.478924,-0.450878,-0.481826,-0.473283,-0.442980,-0.452974,-0.436372,-0.446527,-0.435888,-0.434599,-0.433632,-0.423638,-0.419125,-0.439434,-0.414451,-0.442013,-0.459260,-0.476023,-0.445237,-0.437500,-0.437178,-0.430247,-0.440079,-0.434760,-0.429119,-0.437984,-0.447816,-0.472477,-0.465063,-0.431536,-0.425895,-0.460227,-0.422510,-0.436211,-0.475862,-0.441530,-0.433632,-0.425573,-0.435082,-0.426701,-0.460388,-0.408810,-0.462645,-0.410260,-0.475701,-0.456198,-0.412194,-0.435566,-0.469576,-0.413806,-0.412356,-0.415257,-0.439918,-0.440240,-0.461517,-0.404296,-0.424606,-0.429925,-0.414129,-0.427023,-0.411550,-0.446849,-0.432181,-0.438790,-0.471671,-0.402362,-0.462000,-0.443948,-0.438629,-0.435888,-0.437823,-0.443464,-0.387533,-0.390918,-0.444592,-0.415257,-0.396882,-0.379474,-0.403974,-0.402846,-0.424283,-0.403329,-0.390918,-0.401879,-0.411550,-0.426540,-0.398010,-0.413967,-0.403329,-0.428635,-0.417675,-0.422994,-0.429441,-0.390596,-0.386083,-0.377701,-0.413806,-0.413484,-0.400589,-0.375767,-0.435727,-0.401556,-0.372382,-0.372704,-0.374478,-0.373672,-0.420254,-0.408326,-0.384632,-0.369158,-0.419609,-0.403007,-0.363839,-0.374639,-0.372060,-0.374639,-0.420576,-0.410260,-0.409777,-0.428313,-0.378024,-0.420254,-0.416869,-0.404780,-0.378991,-0.421382,-0.386566,-0.432826,-0.385760,-0.402685,-0.425089,-0.442013,-0.401234,-0.405102,-0.396398,-0.398171,-0.398010,-0.427507,-0.399300,-0.424767,-0.452490,-0.440240,-0.396721,-0.465546,-0.400589,-0.456359,-0.452168,-0.469898,-0.400750,-0.454908,-0.440724,-0.462161,-0.428474,-0.448138,-0.465385,-0.470382,-0.463290,-0.432181,-0.466513,-0.465224,-0.463934,-0.436050,-0.467158,-0.445559,-0.482954,-0.449750,-0.486984,-0.449911,-0.461355,-0.480214,-0.508421,-0.473928,-0.459421,-0.466836,-0.476023,-0.494398,-0.516158,-0.468447,-0.469092,-0.532921,-0.468609,-0.489724,-0.487306,-0.538562,-0.533404,-0.493109,-0.512934,-0.549523,-0.497138,-0.536467,-0.516803,-0.548395,-0.542108,-0.542753,-0.503102,-0.510355,-0.525990,-0.559194,-0.562579,-0.499395,-0.558227,-0.550973,-0.540013,-0.553552,-0.533727,-0.529858,-0.530987,-0.523895,-0.527441,-0.521316,-0.579987,-0.514062,-0.571444,-0.555487,-0.524056,-0.548072,-0.521799,-0.573217,-0.565319,-0.524378,-0.576279,-0.525345,-0.566286,-0.559033,-0.574023,-0.516480,-0.573217,-0.508260,-0.533888,-0.556454,-0.565480,-0.526312,-0.534372,-0.525668,-0.574023,-0.519381,-0.545977,-0.519865,-0.528247,-0.517125,-0.585789,-0.542270,-0.525990,-0.525668,-0.563062,-0.514707,-0.526635,-0.510194,-0.581760,-0.539368,-0.586111,-0.571927,-0.541786,-0.524056,-0.557582,-0.570799,-0.557743,-0.512612,-0.520510,-0.506003,-0.526474,-0.505520,-0.513740,-0.519381,-0.520993,-0.519381,-0.517286,-0.519543,-0.566447,-0.552585,-0.550329,-0.525668,-0.519704,-0.517125,-0.530020,-0.551135,-0.527763,-0.515513,-0.518898,-0.504069,-0.512451,-0.557260,-0.528891,-0.543881,-0.525829,-0.509549,-0.526312,-0.552746,-0.564835,-0.501812,-0.545654,-0.537273,-0.505197,-0.492947,-0.511000,-0.516803,-0.506326,-0.515674,-0.526796,-0.505036,-0.563223,-0.516158,-0.512773,-0.533243,-0.519704,-0.520832,-0.541141,-0.516803,-0.518576,-0.513901,-0.509388,-0.515191,-0.503102,-0.549523,-0.562095,-0.503585,-0.549523,-0.500684,-0.504230,-0.514546,-0.563223,-0.509549,-0.506487,-0.551941,-0.522283,-0.549845,-0.532599,-0.502941,-0.546622,-0.512128,-0.532437,-0.462323,-0.549039,-0.514707,-0.541464,-0.508421,-0.517770,-0.560161,-0.564352,-0.538079,-0.517286,-0.552102,-0.532115,-0.512289,-0.513257,-0.505842,-0.535661,-0.563385,-0.516641,-0.561934,-0.510516,-0.553552,-0.511322,-0.515835,-0.513901,-0.553391,-0.534533,-0.532760,-0.544043,-0.517447,-0.501490,-0.541302,-0.546138,-0.509066,-0.555648,-0.534210,-0.501007,-0.500201,-0.499717,-0.525184,-0.534049,-0.538562,-0.507132,-0.500684,-0.550812,-0.513418,-0.542753,-0.511161,-0.506648,-0.555809,-0.523733,-0.541625,-0.501651,-0.553391,-0.515835,-0.514062,-0.544043,-0.507293,-0.543075,-0.507454,-0.523411,-0.518253,-0.501329,-0.496493,-0.500201,-0.511483,-0.507615,-0.510033,-0.535016,-0.511967,-0.511322,-0.550490,-0.506970,-0.531470,-0.501490,-0.509227,-0.498750,-0.502780,-0.508743,-0.541464,-0.507937,-0.563546,-0.503585,-0.511000,-0.535661,-0.514062,-0.507132,-0.532599,-0.551296,-0.556937,-0.546783,-0.530020,-0.499395,-0.523250,-0.500845,-0.545654,-0.553714,-0.510839,-0.552263,-0.554520,-0.501329,-0.516319,-0.542431,-0.512612,-0.508582,-0.511645,-0.538079,-0.559516,-0.508905,-0.511645,-0.552746,-0.527118,-0.495849,-0.498428,-0.538562,-0.495849,-0.490368,-0.500039,-0.524539,-0.507454,-0.499556,-0.498589,-0.499556,-0.558871,-0.507454,-0.541464,-0.498266,-0.548717,-0.506326,-0.521638,-0.509710,-0.528569,-0.525668,-0.491980,-0.495204,-0.476507,-0.545010,-0.507615,-0.549200,-0.509388,-0.532599,-0.494076
 13:27:06.,-0.531309,-0.535177,-0.504553,-0.517931,-0.501974,-0.460549,-0.536145,-0.484727,-0.490852,-0.515191,-0.485855,-0.477151,-0.530342,-0.494076,-0.485533,-0.518737,-0.496977,-0.525829,-0.496816,-0.479892,-0.519381,-0.495043,-0.479892,-0.474089,-0.519059,-0.515674,-0.487467,-0.509066,-0.520832,-0.458293,-0.464418,-0.486500,-0.500039,-0.507293,-0.496010,-0.443303,-0.461517,-0.494720,-0.497461,-0.485211,-0.453941,-0.454747,-0.482632,-0.525023,-0.461355,-0.468286,-0.505359,-0.493914,-0.486016,-0.495526,-0.484405,-0.449589,-0.462484,-0.463128,-0.461033,-0.515352,-0.492141,-0.466674,-0.451362,-0.464096,-0.475378,-0.514868,-0.463612,-0.513740,-0.485049,-0.476023,-0.467964,-0.518092,-0.480214,-0.518898,-0.461839,-0.476023,-0.502618,-0.526474,-0.479569,-0.488273,-0.472477,-0.503263,-0.487790,-0.548233,-0.538240,-0.533404,-0.488595,-0.503747,-0.505359,-0.548717,-0.529858,-0.493914,-0.536145,-0.531309,-0.491013,-0.498750,-0.530664,-0.511000,-0.544848,-0.502618,-0.536950,-0.533727,-0.499878,-0.511483,-0.542914,-0.499395,-0.531631,-0.525506,-0.493753,-0.533082,-0.491819,-0.493431,-0.511322,-0.487306,-0.489885,-0.511161,-0.506970,-0.506487,-0.549845,-0.492464,-0.543881,-0.499234,-0.494076,-0.513418,-0.491174,-0.531309,-0.513418,-0.499717,-0.551296,-0.485533,-0.538562,-0.484727,-0.510516,-0.487628,-0.500039,-0.510678,-0.486178,-0.516964,-0.527763,-0.514868,-0.479730,-0.462967,-0.506164,-0.447171,-0.455553,-0.480375,-0.450073,-0.484566,-0.440402,-0.471994,-0.503585,-0.443786,-0.447655,-0.443303,-0.451201,-0.450717,-0.481665,-0.473283,-0.473605,-0.430731,-0.438306,-0.415096,-0.445559,-0.441691,-0.411066,-0.409132,-0.458938,-0.412839,-0.457326,-0.470382,-0.478280,-0.499556,-0.488112,-0.502780,-0.510839,-0.569993,-0.542108,-0.601263,-0.556454,-0.626569,-0.619476,-0.601907,-0.609644,-0.607710,-0.613029,-0.635917,-0.657516,-0.616575,-0.649940,-0.618187,-0.636401,-0.639624,-0.671055,-0.681693,-0.645266,-0.674924,-0.634628,-0.671216,-0.614802,-0.620766,-0.595460,-0.603358,-0.589496,-0.610773,-0.570960,-0.606421,-0.539852,-0.533888,-0.515835,-0.504391,-0.503424,-0.494882,-0.479892,-0.461355,-0.511483,-0.510194,-0.502941,-0.500362,-0.459905,-0.464257,-0.452329,-0.485372,-0.440240,-0.484727,-0.459905,-0.493431,-0.489724,-0.449428,-0.451684,-0.453780,-0.443303,-0.493270,-0.451846,-0.486984,-0.452168,-0.450395,-0.500039,-0.453941,-0.497944,-0.486661,-0.476990,-0.447010,-0.439434,-0.455230,-0.447816,-0.482470,-0.499395,-0.438145,-0.457648,-0.480375,-0.454586,-0.453296,-0.457326,-0.480859,-0.472638,-0.449589,-0.438790,-0.434115,-0.488595,-0.430892,-0.432020,-0.448783,-0.436372,-0.480053,-0.437178,-0.445721,-0.469415,-0.450717,-0.484888,-0.469898,-0.438951,-0.435566,-0.453619,-0.440724,-0.433471,-0.433471,-0.433309,-0.484727,-0.444109,-0.489079,-0.433309,-0.488112,-0.425250,-0.448783,-0.477313,-0.483599,-0.428635,-0.427990,-0.429602,-0.435566,-0.474734,-0.477474,-0.415740,-0.447494,-0.456520,-0.447816,-0.470865,-0.439273,-0.470543,-0.430408,-0.425250,-0.432342,-0.418803,-0.441852,-0.416224,-0.469253,-0.417191,-0.455069,-0.416063,-0.453619,-0.433148,-0.437339,-0.409293,-0.437017,-0.430247,-0.459905,-0.458293,-0.408971,-0.457648,-0.407198,-0.416869,-0.429763,-0.465063,-0.410099,-0.418803,-0.410744,-0.417513,-0.411872,-0.401234,-0.435727,-0.413484,-0.435082,-0.455392,-0.397527,-0.399300,-0.436050,-0.391079,-0.428313,-0.395431,-0.424444,-0.392530,-0.415418,-0.382375,-0.381408,-0.433632,-0.376412,-0.385922,-0.390112,-0.399461,-0.389145,-0.431375,-0.381408,-0.406069,-0.378991,-0.387211,-0.396237,-0.375767,-0.375122,-0.382214,-0.389145,-0.378024,-0.380602,-0.399944,-0.415902,-0.383826,-0.370770,-0.369481,-0.411066,-0.380441,-0.388823,-0.378829,-0.376412,-0.374316,-0.401395,-0.407037,-0.402201,-0.358843,-0.369642,-0.364484,-0.386727,-0.428474,-0.372543,-0.378185,-0.411389,-0.380119,-0.376251,-0.412839,-0.381247,-0.431053,-0.376734,-0.389145,-0.404135,-0.379313,-0.399139,-0.410583,-0.391724,-0.413967,-0.421060,-0.398816,-0.440240,-0.396398,-0.431859,-0.389145,-0.401234,-0.393175,-0.425734,-0.422510,-0.390596,-0.439112,-0.403168,-0.410421,-0.399783,-0.390112,-0.412839,-0.412517,-0.426540,-0.421221,-0.422510,-0.420092,-0.422833,-0.417352,-0.465869,-0.456036,-0.463934,-0.424928,-0.428958,-0.443142,-0.418319,-0.427185,-0.449267,-0.485694,-0.474250,-0.430247,-0.452007,-0.440724,-0.475862,-0.457003,-0.476184,-0.488112,-0.498750,-0.476345,-0.477313,-0.462967,-0.506648,-0.474411,-0.519220,-0.464579,-0.469576,-0.473767,-0.479730,-0.520349,-0.485049,-0.507454,-0.490368,-0.512934,-0.541625,-0.495204,-0.508421,-0.502457,-0.513418,-0.488757,-0.501651,-0.530664,-0.543881,-0.503263,-0.508905,-0.516319,-0.557098,-0.555003,-0.565319,-0.511161,-0.529858,-0.525829,-0.553069,-0.557098,-0.497944,-0.563223,-0.547427,-0.543398,-0.543559,-0.552102,-0.533404,-0.575473,-0.563868,-0.551618,-0.519381,-0.584338,-0.517125,-0.541786,-0.533243,-0.573862,-0.565964,-0.563868,-0.518414,-0.530181,-0.531793,-0.554036,-0.557421,-0.528891,-0.516641,-0.579342,-0.541625,-0.528085,-0.523411,-0.532599,-0.534533,-0.518737,-0.519381,-0.523895,-0.542753,-0.521155,-0.516641,-0.555003,-0.530342,-0.545332,-0.564029,-0.559194,-0.568220,-0.519381,-0.531470,-0.522444,-0.519865,-0.535500,-0.512451,-0.521477,-0.525668,-0.515835,-0.522122,-0.536628,-0.535339,-0.551779,-0.529052,-0.545493,-0.544204,-0.510678,-0.563707,-0.528408,-0.523411,-0.511000,-0.520832,-0.524056,-0.542753,-0.508099,-0.515030,-0.540819,-0.519381,-0.562417,-0.504069,-0.539207,-0.515352,-0.557904,-0.523572,-0.504875,-0.554036,-0.531793,-0.538562,-0.548878,-0.517931,-0.523733,-0.549684,-0.496010,-0.539207,-0.504391,-0.528408,-0.517770,-0.505036,-0.511483,-0.508421,-0.534694,-0.512451,-0.510033,-0.539852,-0.559516,-0.518737,-0.509227,-0.502780,-0.501490,-0.508582,-0.542592,-0.506487,-0.501651,-0.500845,-0.521638,-0.538240,-0.517770,-0.540658,-0.508905,-0.513901,-0.549523,-0.544043,-0.495688,-0.514546,-0.531793,-0.516319,-0.543237,-0.544848,-0.536467,-0.493431,-0.539852,-0.506970,-0.542753,-0.559194,-0.519543,-0.550490,-0.504553,-0.551457,-0.502618,-0.552424,-0.540335,-0.511645,-0.517931,-0.515030,-0.535339,-0.558871,-0.523572,-0.529052,-0.499072,-0.506164,-0.497783,-0.545171,-0.520993,-0.509388,-0.503102,-0.504875,-0.528730,-0.541141,-0.503102,-0.500201,-0.497138,-0.491819,-0.548233,-0.504391,-0.515030,-0.507937,-0.509872,-0.500684,-0.544365,-0.503424,-0.541464,-0.503585,-0.512773,-0.486339,-0.514707,-0.534210,-0.506648,-0.510033,-0.513901,-0.555970,-0.524217,-0.535983,-0.517608,-0.541141,-0.547266,-0.496171,-0.496655,-0.503585,-0.555003,-0.508099,-0.544687,-0.538562,-0.547589,-0.509549,-0.519865,-0.539368,-0.540335,-0.539046,-0.521960,-0.507132,-0.541947,-0.536789,-0.533082,-0.555325,-0.541786,-0.496171,-0.507776,-0.547911,-0.542753,-0.518576,-0.515835,-0.538240,-0.499395,-0.501007,-0.494076,-0.543881,-0.520026,-0.507454,-0.548072,-0.548717,-0.506326,-0.541786,-0.497944,-0.508421,-0.523733,-0.539691,-0.526151,-0.542108,-0.473767,-0.529858,-0.494076,-0.500039,-0.532599,-0.549684,-0.513579,-0.498266,-0.539529,-0.530020,-0.482148,-0.496977,-0.528569,-0.548395,-0.516480,-0.487951,-0.479730,-0.508582,-0.540980,-0.493431,-0.502941,-0.497783,-0.492464,-0.511806,-0.532115,-0.496493,-0.498589,-0.530987,-0.525184,-0.503747,-0.489563,-0.487628,-0.487467,-0.519865,-0.485533,-0.520187,-0.536145,-0.532599,-0.535016,-0.483921,-0.528569,-0.486500,-0.472155,-0.466674,-0.534372,-0.490852,-0.515674,-0.488273,-0.519865,-0.519704,-0.495849,-0.531148,-0.491658,-0.515191,-0.491497,-0.521316,-0.489240,-0.494559,-0.479086,-0.487145,-0.516319,-0.519059,-0.484566,-0.521155,-0.518737,-0.477796,-0.543398,-0.473928,-0.471510,-0.506648,-0.512451,-0.529375,-0.502135,-0.491336,-0.457648,-0.485049,-0.462967,-0.464096,-0.457326,-0.456036,-0.447494,-0.498428,-0.452007,-0.491336,-0.438145,-0.517125,-0.462484,-0.476023,-0.475540,-0.502135,-0.462323,-0.492947,-0.494076,-0.463612,-0.459260,-0.511000,-0.459260,-0.462484,-0.454586,-0.507454,-0.452007,-0.494559,-0.451362,-0.466030,-0.484082,-0.515674,-0.481826,-0.467480,-0.527441,-0.469092,-0.525184,-0.510194,-0.510678,-0.477796,-0.522283,-0.470704,-0.528569,-0.481665,-0.493914,-0.530342,-0.546138,-0.532921,-0.545171,-0.500362,-0.530503,-0.537112,-0.506809,-0.535339,-0.536145,-0.502780,-0.500684,-0.528569,-0.534855,-0.538401,-0.512773,-0.511645,-0.516803,-0.506003,-0.518737,-0.559677,-0.501812,-0.512289,-0.502618,-0.503424,-0.539207,-0.499072,-0.530664,-0.533243,-0.498428,-0.538079,-0.492625,-0.517125,-0.533566,-0.511000,-0.500845,-0.516158,-0.523895,-0.553069,-0.491174,-0.501490,-0.546622,-0.510033,-0.505359,-0.536145,-0.499878,-0.508099,-0.500523,-0.491174,-0.508743,-0.491819,-0.493431,-0.498105,-0.501490,-0.532760,-0.487628,-0.479086,-0.483438,-0.468125,-0.510678,-0.491980,-0.491658,-0.484566,-0.503747,-0.439918,-0.476345,-0.440240,-0.494237,-0.457487,-0.492141,-0.509066,-0.445721,-0.457003,-0.488434,-0.472477,-0.488757,-0.434760,-0.438145,-0.421221,-0.423477,-0.417191,-0.406875,-0.485533,-0.410099,-0.459905,-0.431536,-0.463290,-0.449750,-0.486016,-0.523250,-0.494237,-0.565158,-0.554358,-0.560000,-0.580954,-0.616414,-0.607065,-0.644460,-0.620444,-0.619960,-0.623506,-0.624151,-0.647039,-0.622539,-0.625924,-0.627374,-0.635756,-0.626407,-0.658483,-0.635595,-0.677180,-0.673151,-0.685723,-0.632855,-0.668960,-0.666864,-0.619960,-0.614963,-0.640914,-0.597878,-0.625601,-0.603358,-0.547750,-0.575473,-0.569348,-0.519704,-0.551941,-0.502618,-0.484405,-0.525023,-0.525668,-0.513418,-0.501490,-0.482148,-0.504714,-0.518737,-0.453457,-0.496655,-0.453619,-0.514062,-0.461839,-0.456036,-0.462967,-0.511322,-0.450073,-0.447010,-0.457648,-0.460549,-0.488595,-0.481665,-0.501168,-0.453780,-0.456359,-0.471349,-0.497299,-0.467480,-0.488595,-0.511161,-0.460872,-0.493592,-0.498911,-0.456681,-0.496171,-0.490852,-0.458938,-0.478924,-0.495849,-0.493270,-0.513418,-0.506164,-0.456036,-0.470865,-0.452652,-0.461194,-0.467964,-0.453457,-0.478118,-0.446043,-0.480697,-0.497138,-0.452490,-0.496655,-0.499072,-0.450395,-0.444915,-0.489401,-0.443625,-0.486016,-0.499878
 13:27:07.,-0.439596,-0.460388,-0.485049,-0.446043,-0.493270,-0.448622,-0.447332,-0.444270,-0.467642,-0.449589,-0.479086,-0.445559,-0.465385,-0.462161,-0.443625,-0.447977,-0.456842,-0.437178,-0.437984,-0.471349,-0.429280,-0.417675,-0.446204,-0.442336,-0.479730,-0.471994,-0.482148,-0.418803,-0.449428,-0.432342,-0.481020,-0.472799,-0.472155,-0.469737,-0.489079,-0.431536,-0.443464,-0.433632,-0.432826,-0.421543,-0.486500,-0.455875,-0.424122,-0.444431,-0.428313,-0.424444,-0.427185,-0.434438,-0.422671,-0.412517,-0.414612,-0.465869,-0.423155,-0.429280,-0.451362,-0.400106,-0.416869,-0.458132,-0.431536,-0.420737,-0.416708,-0.411711,-0.452652,-0.417191,-0.418481,-0.414612,-0.418158,-0.408326,-0.414773,-0.401234,-0.403007,-0.395109,-0.436050,-0.391241,-0.392369,-0.424606,-0.384793,-0.389951,-0.437017,-0.395915,-0.389468,-0.440724,-0.429280,-0.426862,-0.428635,-0.393658,-0.433471,-0.442658,-0.393014,-0.418642,-0.392852,-0.417030,-0.417997,-0.387211,-0.420415,-0.398333,-0.432504,-0.392208,-0.425734,-0.416869,-0.392369,-0.425250,-0.370931,-0.379152,-0.425089,-0.431698,-0.388823,-0.403329,-0.365774,-0.387856,-0.438790,-0.442175,-0.405102,-0.394787,-0.396560,-0.402523,-0.431698,-0.382859,-0.378668,-0.389951,-0.416063,-0.444754,-0.385760,-0.430731,-0.431214,-0.380119,-0.396721,-0.396237,-0.395431,-0.394303,-0.396237,-0.396721,-0.442497,-0.435244,-0.443464,-0.417836,-0.449750,-0.401234,-0.403974,-0.406069,-0.409132,-0.406875,-0.387211,-0.475540,-0.465063,-0.471671,-0.441207,-0.442658,-0.468770,-0.474572,-0.433632,-0.463290,-0.489079,-0.466997,-0.484888,-0.449267,-0.447010,-0.477957,-0.447655,-0.441207,-0.508582,-0.444915,-0.455069,-0.471188,-0.470543,-0.497783,-0.482148,-0.486339,-0.471349,-0.465869,-0.478602,-0.510839,-0.490207,-0.458293,-0.482954,-0.510678,-0.533082,-0.483115,-0.543720,-0.541625,-0.506326,-0.504714,-0.552263,-0.539368,-0.512128,-0.548717,-0.510839,-0.498428,-0.526151,-0.545171,-0.559516,-0.558388,-0.516641,-0.548395,-0.519704,-0.519381,-0.523572,-0.571605,-0.540174,-0.563223,-0.531793,-0.522283,-0.540013,-0.527924,-0.513579,-0.522444,-0.529858,-0.579181,-0.530664,-0.576440,-0.575796,-0.546138,-0.580470,-0.549362,-0.557582,-0.580954,-0.573378,-0.531470,-0.557904,-0.550973,-0.522122,-0.552263,-0.520832,-0.528730,-0.566608,-0.562740,-0.526312,-0.585467,-0.534049,-0.537273,-0.564352,-0.529375,-0.577891,-0.537918,-0.511161,-0.545977,-0.515191,-0.516964,-0.522766,-0.534533,-0.518414,-0.565802,-0.531954,-0.515835,-0.513579,-0.518092,-0.565480,-0.517447,-0.566125,-0.528408,-0.558871,-0.523733,-0.555809,-0.557098,-0.511000,-0.539046,-0.554358,-0.542270,-0.565319,-0.514385,-0.563546,-0.536628,-0.527279,-0.528569,-0.559194,-0.520510,-0.535661,-0.513418,-0.564191,-0.517931,-0.558227,-0.523733,-0.515513,-0.532115,-0.510194,-0.519704,-0.526957,-0.545977,-0.535500,-0.548072,-0.522122,-0.508260,-0.531470,-0.512773,-0.571605,-0.507776,-0.521638,-0.511000,-0.513901,-0.553391,-0.510678,-0.540980,-0.522122,-0.564029,-0.531793,-0.506809,-0.548072,-0.548072,-0.506164,-0.549684,-0.506487,-0.497299,-0.519865,-0.529052,-0.521477,-0.538401,-0.547427,-0.550651,-0.500362,-0.525668,-0.556131,-0.528730,-0.547750,-0.551941,-0.555164,-0.563223,-0.512773,-0.511967,-0.498105,-0.545816,-0.499395,-0.560644,-0.552102,-0.568220,-0.511322,-0.566931,-0.532760,-0.535983,-0.519704,-0.531793,-0.543237,-0.516480,-0.563062,-0.563868,-0.556293,-0.532921,-0.522928,-0.561450,-0.518737,-0.547750,-0.506970,-0.519381,-0.512773,-0.561450,-0.516319,-0.549684,-0.535983,-0.551618,-0.559677,-0.514385,-0.556615,-0.513901,-0.510033,-0.546138,-0.569832,-0.547427,-0.542108,-0.556776,-0.561934,-0.520832,-0.510516,-0.510839,-0.516803,-0.505681,-0.525668,-0.533888,-0.548395,-0.559516,-0.519220,-0.526151,-0.543237,-0.516158,-0.500362,-0.493431,-0.549039,-0.533404,-0.517608,-0.492786,-0.547750,-0.508905,-0.514546,-0.531148,-0.525023,-0.559677,-0.515030,-0.526474,-0.519381,-0.504875,-0.556937,-0.519059,-0.549039,-0.515997,-0.506970,-0.557743,-0.515835,-0.526635,-0.538562,-0.518414,-0.538401,-0.564352,-0.549684,-0.504714,-0.547266,-0.514385,-0.502618,-0.550812,-0.518737,-0.501168,-0.506809,-0.551135,-0.563223,-0.500523,-0.555970,-0.509710,-0.517931,-0.506003,-0.526312,-0.542753,-0.545493,-0.520671,-0.498589,-0.506648,-0.515835,-0.503585,-0.541302,-0.564029,-0.533727,-0.509872,-0.499395,-0.515030,-0.538401,-0.506970,-0.500039,-0.532115,-0.501168,-0.535983,-0.539046,-0.488595,-0.522928,-0.490852,-0.492625,-0.492303,-0.490207,-0.537112,-0.483115,-0.512289,-0.498428,-0.499234,-0.489885,-0.486984,-0.536306,-0.525345,-0.481826,-0.507615,-0.505520,-0.532437,-0.528408,-0.500523,-0.531954,-0.517770,-0.491980,-0.529375,-0.493109,-0.541786,-0.489240,-0.492947,-0.501974,-0.515352,-0.478441,-0.518898,-0.513257,-0.494559,-0.470865,-0.515513,-0.460711,-0.475056,-0.468286,-0.509388,-0.507454,-0.519381,-0.470382,-0.499395,-0.463612,-0.476345,-0.459099,-0.458938,-0.507615,-0.481665,-0.466352,-0.466030,-0.488757,-0.466997,-0.461839,-0.464418,-0.496816,-0.534049,-0.477151,-0.528569,-0.477151,-0.515997,-0.508099,-0.466997,-0.496655,-0.485049,-0.477796,-0.478280,-0.474572,-0.492464,-0.524539,-0.495365,-0.497138,-0.521477,-0.490368,-0.506003,-0.501974,-0.497622,-0.525990,-0.482148,-0.533082,-0.540335,-0.514868,-0.515997,-0.496171,-0.512934,-0.493431,-0.509549,-0.507937,-0.549684,-0.503424,-0.515030,-0.547750,-0.501974,-0.553230,-0.514868,-0.514707,-0.525184,-0.540819,-0.533404,-0.504230,-0.515835,-0.504553,-0.534533,-0.531148,-0.506809,-0.554520,-0.527279,-0.497783,-0.516158,-0.504553,-0.513901,-0.535339,-0.514868,-0.507776,-0.551618,-0.500201,-0.559194,-0.538079,-0.543881,-0.504391,-0.505520,-0.543881,-0.528730,-0.506970,-0.554197,-0.510839,-0.536467,-0.541464,-0.560322,-0.516158,-0.508260,-0.499556,-0.526474,-0.492303,-0.550651,-0.526474,-0.495043,-0.482954,-0.507776,-0.479730,-0.482793,-0.525023,-0.488273,-0.463934,-0.498750,-0.497138,-0.456359,-0.454747,-0.461355,-0.481665,-0.479892,-0.498589,-0.440885,-0.465385,-0.453780,-0.472316,-0.433954,-0.426540,-0.445721,-0.454747,-0.427023,-0.437661,-0.418158,-0.391402,-0.401556,-0.430086,-0.388823,-0.433793,-0.436211,-0.428958,-0.441691,-0.498266,-0.475701,-0.548072,-0.578858,-0.575796,-0.604164,-0.641397,-0.609322,-0.643815,-0.650101,-0.700229,-0.658644,-0.666059,-0.680243,-0.648651,-0.649134,-0.659128,-0.649779,-0.701841,-0.679920,-0.710545,-0.657838,-0.659289,-0.666864,-0.658483,-0.649940,-0.638013,-0.619799,-0.614802,-0.601907,-0.636562,-0.621250,-0.615608,-0.612707,-0.549362,-0.554842,-0.536467,-0.524701,-0.513740,-0.535661,-0.497944,-0.526151,-0.506326,-0.481987,-0.497299,-0.464740,-0.481665,-0.478763,-0.465869,-0.461517,-0.495688,-0.475378,-0.514546,-0.471188,-0.504391,-0.482793,-0.471832,-0.476829,-0.495043,-0.515191,-0.455230,-0.470059,-0.485049,-0.492141,-0.458776,-0.486016,-0.452652,-0.502941,-0.488757,-0.496332,-0.464579,-0.462806,-0.462484,-0.449589,-0.509066,-0.463773,-0.494398,-0.450717,-0.446849,-0.459421,-0.455230,-0.497138,-0.434599,-0.466836,-0.491336,-0.457648,-0.455875,-0.489401,-0.449911,-0.491980,-0.502457,-0.487951,-0.493109,-0.471510,-0.456359,-0.488595,-0.442980,-0.438306,-0.462967,-0.477635,-0.491336,-0.488757,-0.490691,-0.446688,-0.465707,-0.452813,-0.452168,-0.432504,-0.468447,-0.440079,-0.448622,-0.477313,-0.494398,-0.428152,-0.438951,-0.496171,-0.447171,-0.453457,-0.481020,-0.477151,-0.442497,-0.475862,-0.454263,-0.471188,-0.453619,-0.470221,-0.439434,-0.427346,-0.428635,-0.451201,-0.421543,-0.481503,-0.463451,-0.488757,-0.446043,-0.429925,-0.449428,-0.424606,-0.424122,-0.425734,-0.421865,-0.425250,-0.443625,-0.426379,-0.422671,-0.421060,-0.419287,-0.396721,-0.474572,-0.410260,-0.463451,-0.413645,-0.428635,-0.427668,-0.422349,-0.458132,-0.454263,-0.434438,-0.412517,-0.443625,-0.438629,-0.388823,-0.402040,-0.432987,-0.446043,-0.453780,-0.427829,-0.434921,-0.437661,-0.452168,-0.395270,-0.452490,-0.433793,-0.397849,-0.412678,-0.424444,-0.395431,-0.423155,-0.435888,-0.437339,-0.383987,-0.443786,-0.398655,-0.428313,-0.399783,-0.404458,-0.396398,-0.394625,-0.404296,-0.392852,-0.413645,-0.437823,-0.419931,-0.385922,-0.381892,-0.418642,-0.416546,-0.430408,-0.422188,-0.378346,-0.408487,-0.417513,-0.378991,-0.427023,-0.380602,-0.413806,-0.419931,-0.377701,-0.390757,-0.417675,-0.409454,-0.389629,-0.401556,-0.412678,-0.410099,-0.378991,-0.371737,-0.425411,-0.385922,-0.433632,-0.403813,-0.425089,-0.382375,-0.379797,-0.377218,-0.425895,-0.408004,-0.405102,-0.395593,-0.378185,-0.430731,-0.413162,-0.393336,-0.396398,-0.409293,-0.408165,-0.465546,-0.455392,-0.454586,-0.445398,-0.411227,-0.417191,-0.417675,-0.406714,-0.450395,-0.454747,-0.425089,-0.402201,-0.457809,-0.421704,-0.429925,-0.482470,-0.480697,-0.483438,-0.480697,-0.434277,-0.458132,-0.447816,-0.480214,-0.456842,-0.495849,-0.448461,-0.495688,-0.496493,-0.454425,-0.485694,-0.470221,-0.473767,-0.517125,-0.500523,-0.470543,-0.516641,-0.512934,-0.477796,-0.508743,-0.492786,-0.484888,-0.483921,-0.530664,-0.479408,-0.520026,-0.492947,-0.488595,-0.496655,-0.525990,-0.505359,-0.507454,-0.509388,-0.535822,-0.511645,-0.548556,-0.520671,-0.549684,-0.519059,-0.518414,-0.515513,-0.512612,-0.526796,-0.551457,-0.574184,-0.521477,-0.520026,-0.539691,-0.578052,-0.573056,-0.527441,-0.568220,-0.538401,-0.535822,-0.534855,-0.558871,-0.530503,-0.548556,-0.525506,-0.560483,-0.510678,-0.531954,-0.566608,-0.560000,-0.537595,-0.532921,-0.525829,-0.558227,-0.548395,-0.569187,-0.549523,-0.553230,-0.536467,-0.537273,-0.529697,-0.513901,-0.578375,-0.525345,-0.519543,-0.577408,-0.573056,-0.532921,-0.526796,-0.535177,-0.522283,-0.548072,-0.552102,-0.528247,-0.532921,-0.548395,-0.510516,-0.516803,-0.509066,-0.557904,-0.555003,-0.573862,-0.514224,-0.576279,-0.513740,-0.562095,-0.554197,-0.517770,-0.516480,-0.514868,-0.521155,-0.510839,-0.514385,-0.573862,-0.535500,-0.514385,-0.528085,-0.523572,-0.519220,-0.530987,-0.523572,-0.523895,-0.533727,-0.553069,-0.545332,-0.519543,-0.508905,-0.510355,-0.540980,-0.560967,-0.505036,-0.512934,-0.512289,-0.497944,-0.551941,-0.505842,-0.558227,-0.509388,-0.502618,-0.513257,-0.512773
